sequence,conversion_trigger_host_us,ch0_raw,ch1_raw,ch2_raw,ch3_raw,ch0_adc_input_v,ch1_adc_input_v,ch2_adc_input_v,ch3_adc_input_v,ch0_myoware_raw_v_estimate,ch1_myoware_raw_v_estimate,ch2_myoware_raw_v_estimate,ch3_myoware_raw_v_estimate,adc_status,adc_crc,read_start_us,read_duration_us,elapsed_slots,active_mask,flags
1,125,49,867,887,91,0.007476806640625,0.132293701171875,0.135345458984375,0.013885498046875,0.007476806640625,0.132293701171875,0.135345458984375,0.013885498046875,,,127,15,1,15,0
2,250,99,891,863,41,0.015106201171875,0.135955810546875,0.131683349609375,0.006256103515625,0.015106201171875,0.135955810546875,0.131683349609375,0.006256103515625,,,252,15,1,15,0
3,375,149,912,836,-8,0.022735595703125,0.13916015625,0.1275634765625,-0.001220703125,0.022735595703125,0.13916015625,0.1275634765625,-0.001220703125,,,377,15,1,15,0
4,500,198,932,808,-58,0.03021240234375,0.1422119140625,0.123291015625,-0.00885009765625,0.03021240234375,0.1422119140625,0.123291015625,-0.00885009765625,,,502,15,1,15,0
5,625,247,948,778,-108,0.037689208984375,0.1446533203125,0.11871337890625,-0.0164794921875,0.037689208984375,0.1446533203125,0.11871337890625,-0.0164794921875,,,627,15,1,15,0
6,750,295,963,745,-157,0.045013427734375,0.146942138671875,0.113677978515625,-0.023956298828125,0.045013427734375,0.146942138671875,0.113677978515625,-0.023956298828125,,,752,15,1,15,0
7,875,342,975,711,-206,0.05218505859375,0.148773193359375,0.108489990234375,-0.03143310546875,0.05218505859375,0.148773193359375,0.108489990234375,-0.03143310546875,,,877,15,1,15,0
8,1000,389,985,675,-255,0.059356689453125,0.150299072265625,0.102996826171875,-0.038909912109375,0.059356689453125,0.150299072265625,0.102996826171875,-0.038909912109375,,,1002,15,1,15,0
9,1125,434,992,637,-303,0.06622314453125,0.1513671875,0.097198486328125,-0.046234130859375,0.06622314453125,0.1513671875,0.097198486328125,-0.046234130859375,,,1127,15,1,15,0
10,1250,479,997,598,-350,0.073089599609375,0.152130126953125,0.09124755859375,-0.05340576171875,0.073089599609375,0.152130126953125,0.09124755859375,-0.05340576171875,,,1252,15,1,15,0
11,1375,522,999,557,-397,0.07965087890625,0.152435302734375,0.084991455078125,-0.060577392578125,0.07965087890625,0.152435302734375,0.084991455078125,-0.060577392578125,,,1377,15,1,15,0
12,1500,564,999,515,-442,0.0860595703125,0.152435302734375,0.078582763671875,-0.06744384765625,0.0860595703125,0.152435302734375,0.078582763671875,-0.06744384765625,,,1502,15,1,15,0
13,1625,605,996,472,-486,0.092315673828125,0.1519775390625,0.072021484375,-0.07415771484375,0.092315673828125,0.1519775390625,0.072021484375,-0.07415771484375,,,1627,15,1,15,0
14,1750,644,991,427,-529,0.0982666015625,0.151214599609375,0.065155029296875,-0.080718994140625,0.0982666015625,0.151214599609375,0.065155029296875,-0.080718994140625,,,1752,15,1,15,0
15,1875,681,983,381,-571,0.103912353515625,0.149993896484375,0.058135986328125,-0.087127685546875,0.103912353515625,0.149993896484375,0.058135986328125,-0.087127685546875,,,1877,15,1,15,0
16,2000,717,973,334,-611,0.109405517578125,0.148468017578125,0.05096435546875,-0.093231201171875,0.109405517578125,0.148468017578125,0.05096435546875,-0.093231201171875,,,2002,15,1,15,0
17,2125,751,961,287,-650,0.114593505859375,0.146636962890625,0.043792724609375,-0.09918212890625,0.114593505859375,0.146636962890625,0.043792724609375,-0.09918212890625,,,2127,15,1,15,0
18,2250,783,946,239,-687,0.119476318359375,0.14434814453125,0.036468505859375,-0.104827880859375,0.119476318359375,0.14434814453125,0.036468505859375,-0.104827880859375,,,2252,15,1,15,0
19,2375,813,928,190,-723,0.124053955078125,0.1416015625,0.02899169921875,-0.110321044921875,0.124053955078125,0.1416015625,0.02899169921875,-0.110321044921875,,,2377,15,1,15,0
20,2500,841,909,141,-756,0.128326416015625,0.138702392578125,0.021514892578125,-0.1153564453125,0.128326416015625,0.138702392578125,0.021514892578125,-0.1153564453125,,,2502,15,1,15,0
21,2625,867,887,91,-788,0.132293701171875,0.135345458984375,0.013885498046875,-0.1202392578125,0.132293701171875,0.135345458984375,0.013885498046875,-0.1202392578125,,,2627,15,1,15,0
22,2750,891,863,41,-818,0.135955810546875,0.131683349609375,0.006256103515625,-0.12481689453125,0.135955810546875,0.131683349609375,0.006256103515625,-0.12481689453125,,,2752,15,1,15,0
23,2875,912,836,-8,-845,0.13916015625,0.1275634765625,-0.001220703125,-0.128936767578125,0.13916015625,0.1275634765625,-0.001220703125,-0.128936767578125,,,2877,15,1,15,0
24,3000,932,808,-58,-871,0.1422119140625,0.123291015625,-0.00885009765625,-0.132904052734375,0.1422119140625,0.123291015625,-0.00885009765625,-0.132904052734375,,,3002,15,1,15,0
25,3125,948,778,-108,-894,0.1446533203125,0.11871337890625,-0.0164794921875,-0.13641357421875,0.1446533203125,0.11871337890625,-0.0164794921875,-0.13641357421875,,,3127,15,1,15,0
26,3250,963,745,-157,-916,0.146942138671875,0.113677978515625,-0.023956298828125,-0.1397705078125,0.146942138671875,0.113677978515625,-0.023956298828125,-0.1397705078125,,,3252,15,1,15,0
27,3375,975,711,-206,-935,0.148773193359375,0.108489990234375,-0.03143310546875,-0.142669677734375,0.148773193359375,0.108489990234375,-0.03143310546875,-0.142669677734375,,,3377,15,1,15,0
28,3500,985,675,-255,-951,0.150299072265625,0.102996826171875,-0.038909912109375,-0.145111083984375,0.150299072265625,0.102996826171875,-0.038909912109375,-0.145111083984375,,,3502,15,1,15,0
29,3625,992,637,-303,-965,0.1513671875,0.097198486328125,-0.046234130859375,-0.147247314453125,0.1513671875,0.097198486328125,-0.046234130859375,-0.147247314453125,,,3627,15,1,15,0
30,3750,997,598,-350,-977,0.152130126953125,0.09124755859375,-0.05340576171875,-0.149078369140625,0.152130126953125,0.09124755859375,-0.05340576171875,-0.149078369140625,,,3752,15,1,15,0
31,3875,999,557,-397,-986,0.152435302734375,0.084991455078125,-0.060577392578125,-0.15045166015625,0.152435302734375,0.084991455078125,-0.060577392578125,-0.15045166015625,,,3877,15,1,15,0
32,4000,999,515,-442,-993,0.152435302734375,0.078582763671875,-0.06744384765625,-0.151519775390625,0.152435302734375,0.078582763671875,-0.06744384765625,-0.151519775390625,,,4002,15,1,15,0
33,4125,996,472,-486,-998,0.1519775390625,0.072021484375,-0.07415771484375,-0.15228271484375,0.1519775390625,0.072021484375,-0.07415771484375,-0.15228271484375,,,4127,15,1,15,0
34,4250,991,427,-529,-999,0.151214599609375,0.065155029296875,-0.080718994140625,-0.152435302734375,0.151214599609375,0.065155029296875,-0.080718994140625,-0.152435302734375,,,4252,15,1,15,0
35,4375,983,381,-571,-999,0.149993896484375,0.058135986328125,-0.087127685546875,-0.152435302734375,0.149993896484375,0.058135986328125,-0.087127685546875,-0.152435302734375,,,4377,15,1,15,0
36,4500,973,334,-611,-996,0.148468017578125,0.05096435546875,-0.093231201171875,-0.1519775390625,0.148468017578125,0.05096435546875,-0.093231201171875,-0.1519775390625,,,4502,15,1,15,0
37,4625,961,287,-650,-990,0.146636962890625,0.043792724609375,-0.09918212890625,-0.15106201171875,0.146636962890625,0.043792724609375,-0.09918212890625,-0.15106201171875,,,4627,15,1,15,0
38,4750,946,239,-687,-982,0.14434814453125,0.036468505859375,-0.104827880859375,-0.14984130859375,0.14434814453125,0.036468505859375,-0.104827880859375,-0.14984130859375,,,4752,15,1,15,0
39,4875,928,190,-723,-971,0.1416015625,0.02899169921875,-0.110321044921875,-0.148162841796875,0.1416015625,0.02899169921875,-0.110321044921875,-0.148162841796875,,,4877,15,1,15,0
40,5000,909,141,-756,-958,0.138702392578125,0.021514892578125,-0.1153564453125,-0.14617919921875,0.138702392578125,0.021514892578125,-0.1153564453125,-0.14617919921875,,,5002,15,1,15,0
41,5125,887,91,-788,-943,0.135345458984375,0.013885498046875,-0.1202392578125,-0.143890380859375,0.135345458984375,0.013885498046875,-0.1202392578125,-0.143890380859375,,,5127,15,1,15,0
42,5250,863,41,-818,-925,0.131683349609375,0.006256103515625,-0.12481689453125,-0.141143798828125,0.131683349609375,0.006256103515625,-0.12481689453125,-0.141143798828125,,,5252,15,1,15,0
43,5375,836,-8,-845,-905,0.1275634765625,-0.001220703125,-0.128936767578125,-0.138092041015625,0.1275634765625,-0.001220703125,-0.128936767578125,-0.138092041015625,,,5377,15,1,15,0
44,5500,808,-58,-871,-883,0.123291015625,-0.00885009765625,-0.132904052734375,-0.134735107421875,0.123291015625,-0.00885009765625,-0.132904052734375,-0.134735107421875,,,5502,15,1,15,0
45,5625,778,-108,-894,-858,0.11871337890625,-0.0164794921875,-0.13641357421875,-0.13092041015625,0.11871337890625,-0.0164794921875,-0.13641357421875,-0.13092041015625,,,5627,15,1,15,0
46,5750,745,-157,-916,-832,0.113677978515625,-0.023956298828125,-0.1397705078125,-0.126953125,0.113677978515625,-0.023956298828125,-0.1397705078125,-0.126953125,,,5752,15,1,15,0
47,5875,711,-206,-935,-803,0.108489990234375,-0.03143310546875,-0.142669677734375,-0.122528076171875,0.108489990234375,-0.03143310546875,-0.142669677734375,-0.122528076171875,,,5877,15,1,15,0
48,6000,675,-255,-951,-772,0.102996826171875,-0.038909912109375,-0.145111083984375,-0.1177978515625,0.102996826171875,-0.038909912109375,-0.145111083984375,-0.1177978515625,,,6002,15,1,15,0
49,6125,637,-303,-965,-740,0.097198486328125,-0.046234130859375,-0.147247314453125,-0.1129150390625,0.097198486328125,-0.046234130859375,-0.147247314453125,-0.1129150390625,,,6127,15,1,15,0
50,6250,598,-350,-977,-705,0.09124755859375,-0.05340576171875,-0.149078369140625,-0.107574462890625,0.09124755859375,-0.05340576171875,-0.149078369140625,-0.107574462890625,,,6252,15,1,15,0
51,6375,557,-397,-986,-669,0.084991455078125,-0.060577392578125,-0.15045166015625,-0.102081298828125,0.084991455078125,-0.060577392578125,-0.15045166015625,-0.102081298828125,,,6377,15,1,15,0
52,6500,515,-442,-993,-631,0.078582763671875,-0.06744384765625,-0.151519775390625,-0.096282958984375,0.078582763671875,-0.06744384765625,-0.151519775390625,-0.096282958984375,,,6502,15,1,15,0
53,6625,472,-486,-998,-591,0.072021484375,-0.07415771484375,-0.15228271484375,-0.090179443359375,0.072021484375,-0.07415771484375,-0.15228271484375,-0.090179443359375,,,6627,15,1,15,0
54,6750,427,-529,-999,-550,0.065155029296875,-0.080718994140625,-0.152435302734375,-0.08392333984375,0.065155029296875,-0.080718994140625,-0.152435302734375,-0.08392333984375,,,6752,15,1,15,0
55,6875,381,-571,-999,-508,0.058135986328125,-0.087127685546875,-0.152435302734375,-0.0775146484375,0.058135986328125,-0.087127685546875,-0.152435302734375,-0.0775146484375,,,6877,15,1,15,0
56,7000,334,-611,-996,-464,0.05096435546875,-0.093231201171875,-0.1519775390625,-0.07080078125,0.05096435546875,-0.093231201171875,-0.1519775390625,-0.07080078125,,,7002,15,1,15,0
57,7125,287,-650,-990,-419,0.043792724609375,-0.09918212890625,-0.15106201171875,-0.063934326171875,0.043792724609375,-0.09918212890625,-0.15106201171875,-0.063934326171875,,,7127,15,1,15,0
58,7250,239,-687,-982,-373,0.036468505859375,-0.104827880859375,-0.14984130859375,-0.056915283203125,0.036468505859375,-0.104827880859375,-0.14984130859375,-0.056915283203125,,,7252,15,1,15,0
59,7375,190,-723,-971,-327,0.02899169921875,-0.110321044921875,-0.148162841796875,-0.049896240234375,0.02899169921875,-0.110321044921875,-0.148162841796875,-0.049896240234375,,,7377,15,1,15,0
60,7500,141,-756,-958,-279,0.021514892578125,-0.1153564453125,-0.14617919921875,-0.042572021484375,0.021514892578125,-0.1153564453125,-0.14617919921875,-0.042572021484375,,,7502,15,1,15,0
61,7625,91,-788,-943,-231,0.013885498046875,-0.1202392578125,-0.143890380859375,-0.035247802734375,0.013885498046875,-0.1202392578125,-0.143890380859375,-0.035247802734375,,,7627,15,1,15,0
62,7750,41,-818,-925,-182,0.006256103515625,-0.12481689453125,-0.141143798828125,-0.02777099609375,0.006256103515625,-0.12481689453125,-0.141143798828125,-0.02777099609375,,,7752,15,1,15,0
63,7875,-8,-845,-905,-132,-0.001220703125,-0.128936767578125,-0.138092041015625,-0.0201416015625,-0.001220703125,-0.128936767578125,-0.138092041015625,-0.0201416015625,,,7877,15,1,15,0
64,8000,-58,-871,-883,-83,-0.00885009765625,-0.132904052734375,-0.134735107421875,-0.012664794921875,-0.00885009765625,-0.132904052734375,-0.134735107421875,-0.012664794921875,,,8002,15,1,15,0
65,8125,-108,-894,-858,-33,-0.0164794921875,-0.13641357421875,-0.13092041015625,-0.005035400390625,-0.0164794921875,-0.13641357421875,-0.13092041015625,-0.005035400390625,,,8127,15,1,15,0
66,8250,-157,-916,-832,16,-0.023956298828125,-0.1397705078125,-0.126953125,0.00244140625,-0.023956298828125,-0.1397705078125,-0.126953125,0.00244140625,,,8252,15,1,15,0
67,8375,-206,-935,-803,66,-0.03143310546875,-0.142669677734375,-0.122528076171875,0.01007080078125,-0.03143310546875,-0.142669677734375,-0.122528076171875,0.01007080078125,,,8377,15,1,15,0
68,8500,-255,-951,-772,116,-0.038909912109375,-0.145111083984375,-0.1177978515625,0.0177001953125,-0.038909912109375,-0.145111083984375,-0.1177978515625,0.0177001953125,,,8502,15,1,15,0
69,8625,-303,-965,-740,166,-0.046234130859375,-0.147247314453125,-0.1129150390625,0.02532958984375,-0.046234130859375,-0.147247314453125,-0.1129150390625,0.02532958984375,,,8627,15,1,15,0
70,8750,-350,-977,-705,215,-0.05340576171875,-0.149078369140625,-0.107574462890625,0.032806396484375,-0.05340576171875,-0.149078369140625,-0.107574462890625,0.032806396484375,,,8752,15,1,15,0
71,8875,-397,-986,-669,263,-0.060577392578125,-0.15045166015625,-0.102081298828125,0.040130615234375,-0.060577392578125,-0.15045166015625,-0.102081298828125,0.040130615234375,,,8877,15,1,15,0
72,9000,-442,-993,-631,311,-0.06744384765625,-0.151519775390625,-0.096282958984375,0.047454833984375,-0.06744384765625,-0.151519775390625,-0.096282958984375,0.047454833984375,,,9002,15,1,15,0
73,9125,-486,-998,-591,358,-0.07415771484375,-0.15228271484375,-0.090179443359375,0.05462646484375,-0.07415771484375,-0.15228271484375,-0.090179443359375,0.05462646484375,,,9127,15,1,15,0
74,9250,-529,-999,-550,404,-0.080718994140625,-0.152435302734375,-0.08392333984375,0.0616455078125,-0.080718994140625,-0.152435302734375,-0.08392333984375,0.0616455078125,,,9252,15,1,15,0
75,9375,-571,-999,-508,450,-0.087127685546875,-0.152435302734375,-0.0775146484375,0.06866455078125,-0.087127685546875,-0.152435302734375,-0.0775146484375,0.06866455078125,,,9377,15,1,15,0
76,9500,-611,-996,-464,494,-0.093231201171875,-0.1519775390625,-0.07080078125,0.07537841796875,-0.093231201171875,-0.1519775390625,-0.07080078125,0.07537841796875,,,9502,15,1,15,0
77,9625,-650,-990,-419,536,-0.09918212890625,-0.15106201171875,-0.063934326171875,0.081787109375,-0.09918212890625,-0.15106201171875,-0.063934326171875,0.081787109375,,,9627,15,1,15,0
78,9750,-687,-982,-373,578,-0.104827880859375,-0.14984130859375,-0.056915283203125,0.08819580078125,-0.104827880859375,-0.14984130859375,-0.056915283203125,0.08819580078125,,,9752,15,1,15,0
79,9875,-723,-971,-327,618,-0.110321044921875,-0.148162841796875,-0.049896240234375,0.09429931640625,-0.110321044921875,-0.148162841796875,-0.049896240234375,0.09429931640625,,,9877,15,1,15,0
80,10000,-756,-958,-279,656,-0.1153564453125,-0.14617919921875,-0.042572021484375,0.10009765625,-0.1153564453125,-0.14617919921875,-0.042572021484375,0.10009765625,,,10002,15,1,15,0
81,10125,-788,-943,-231,693,-0.1202392578125,-0.143890380859375,-0.035247802734375,0.105743408203125,-0.1202392578125,-0.143890380859375,-0.035247802734375,0.105743408203125,,,10127,15,1,15,0
82,10250,-818,-925,-182,728,-0.12481689453125,-0.141143798828125,-0.02777099609375,0.111083984375,-0.12481689453125,-0.141143798828125,-0.02777099609375,0.111083984375,,,10252,15,1,15,0
83,10375,-845,-905,-132,762,-0.128936767578125,-0.138092041015625,-0.0201416015625,0.11627197265625,-0.128936767578125,-0.138092041015625,-0.0201416015625,0.11627197265625,,,10377,15,1,15,0
84,10500,-871,-883,-83,793,-0.132904052734375,-0.134735107421875,-0.012664794921875,0.121002197265625,-0.132904052734375,-0.134735107421875,-0.012664794921875,0.121002197265625,,,10502,15,1,15,0
85,10625,-894,-858,-33,823,-0.13641357421875,-0.13092041015625,-0.005035400390625,0.125579833984375,-0.13641357421875,-0.13092041015625,-0.005035400390625,0.125579833984375,,,10627,15,1,15,0
86,10750,-916,-832,16,850,-0.1397705078125,-0.126953125,0.00244140625,0.12969970703125,-0.1397705078125,-0.126953125,0.00244140625,0.12969970703125,,,10752,15,1,15,0
87,10875,-935,-803,66,875,-0.142669677734375,-0.122528076171875,0.01007080078125,0.133514404296875,-0.142669677734375,-0.122528076171875,0.01007080078125,0.133514404296875,,,10877,15,1,15,0
88,11000,-951,-772,116,898,-0.145111083984375,-0.1177978515625,0.0177001953125,0.13702392578125,-0.145111083984375,-0.1177978515625,0.0177001953125,0.13702392578125,,,11002,15,1,15,0
89,11125,-965,-740,166,919,-0.147247314453125,-0.1129150390625,0.02532958984375,0.140228271484375,-0.147247314453125,-0.1129150390625,0.02532958984375,0.140228271484375,,,11127,15,1,15,0
90,11250,-977,-705,215,937,-0.149078369140625,-0.107574462890625,0.032806396484375,0.142974853515625,-0.149078369140625,-0.107574462890625,0.032806396484375,0.142974853515625,,,11252,15,1,15,0
91,11375,-986,-669,263,954,-0.15045166015625,-0.102081298828125,0.040130615234375,0.14556884765625,-0.15045166015625,-0.102081298828125,0.040130615234375,0.14556884765625,,,11377,15,1,15,0
92,11500,-993,-631,311,967,-0.151519775390625,-0.096282958984375,0.047454833984375,0.147552490234375,-0.151519775390625,-0.096282958984375,0.047454833984375,0.147552490234375,,,11502,15,1,15,0
93,11625,-998,-591,358,979,-0.15228271484375,-0.090179443359375,0.05462646484375,0.149383544921875,-0.15228271484375,-0.090179443359375,0.05462646484375,0.149383544921875,,,11627,15,1,15,0
94,11750,-999,-550,404,988,-0.152435302734375,-0.08392333984375,0.0616455078125,0.1507568359375,-0.152435302734375,-0.08392333984375,0.0616455078125,0.1507568359375,,,11752,15,1,15,0
95,11875,-999,-508,450,994,-0.152435302734375,-0.0775146484375,0.06866455078125,0.15167236328125,-0.152435302734375,-0.0775146484375,0.06866455078125,0.15167236328125,,,11877,15,1,15,0
96,12000,-996,-464,494,998,-0.1519775390625,-0.07080078125,0.07537841796875,0.15228271484375,-0.1519775390625,-0.07080078125,0.07537841796875,0.15228271484375,,,12002,15,1,15,0
97,12125,-990,-419,536,999,-0.15106201171875,-0.063934326171875,0.081787109375,0.152435302734375,-0.15106201171875,-0.063934326171875,0.081787109375,0.152435302734375,,,12127,15,1,15,0
98,12250,-982,-373,578,998,-0.14984130859375,-0.056915283203125,0.08819580078125,0.15228271484375,-0.14984130859375,-0.056915283203125,0.08819580078125,0.15228271484375,,,12252,15,1,15,0
99,12375,-971,-327,618,995,-0.148162841796875,-0.049896240234375,0.09429931640625,0.151824951171875,-0.148162841796875,-0.049896240234375,0.09429931640625,0.151824951171875,,,12377,15,1,15,0
100,12500,-958,-279,656,989,-0.14617919921875,-0.042572021484375,0.10009765625,0.150909423828125,-0.14617919921875,-0.042572021484375,0.10009765625,0.150909423828125,,,12502,15,1,15,0
101,12625,-943,-231,693,980,-0.143890380859375,-0.035247802734375,0.105743408203125,0.1495361328125,-0.143890380859375,-0.035247802734375,0.105743408203125,0.1495361328125,,,12627,15,1,15,0
102,12750,-925,-182,728,969,-0.141143798828125,-0.02777099609375,0.111083984375,0.147857666015625,-0.141143798828125,-0.02777099609375,0.111083984375,0.147857666015625,,,12752,15,1,15,0
103,12875,-905,-132,762,956,-0.138092041015625,-0.0201416015625,0.11627197265625,0.1458740234375,-0.138092041015625,-0.0201416015625,0.11627197265625,0.1458740234375,,,12877,15,1,15,0
104,13000,-883,-83,793,940,-0.134735107421875,-0.012664794921875,0.121002197265625,0.1434326171875,-0.134735107421875,-0.012664794921875,0.121002197265625,0.1434326171875,,,13002,15,1,15,0
105,13125,-858,-33,823,922,-0.13092041015625,-0.005035400390625,0.125579833984375,0.14068603515625,-0.13092041015625,-0.005035400390625,0.125579833984375,0.14068603515625,,,13127,15,1,15,0
106,13250,-832,16,850,902,-0.126953125,0.00244140625,0.12969970703125,0.13763427734375,-0.126953125,0.00244140625,0.12969970703125,0.13763427734375,,,13252,15,1,15,0
107,13375,-803,66,875,879,-0.122528076171875,0.01007080078125,0.133514404296875,0.134124755859375,-0.122528076171875,0.01007080078125,0.133514404296875,0.134124755859375,,,13377,15,1,15,0
108,13500,-772,116,898,854,-0.1177978515625,0.0177001953125,0.13702392578125,0.13031005859375,-0.1177978515625,0.0177001953125,0.13702392578125,0.13031005859375,,,13502,15,1,15,0
109,13625,-740,166,919,827,-0.1129150390625,0.02532958984375,0.140228271484375,0.126190185546875,-0.1129150390625,0.02532958984375,0.140228271484375,0.126190185546875,,,13627,15,1,15,0
110,13750,-705,215,937,798,-0.107574462890625,0.032806396484375,0.142974853515625,0.12176513671875,-0.107574462890625,0.032806396484375,0.142974853515625,0.12176513671875,,,13752,15,1,15,0
111,13875,-669,263,954,767,-0.102081298828125,0.040130615234375,0.14556884765625,0.117034912109375,-0.102081298828125,0.040130615234375,0.14556884765625,0.117034912109375,,,13877,15,1,15,0
112,14000,-631,311,967,734,-0.096282958984375,0.047454833984375,0.147552490234375,0.11199951171875,-0.096282958984375,0.047454833984375,0.147552490234375,0.11199951171875,,,14002,15,1,15,0
113,14125,-591,358,979,699,-0.090179443359375,0.05462646484375,0.149383544921875,0.106658935546875,-0.090179443359375,0.05462646484375,0.149383544921875,0.106658935546875,,,14127,15,1,15,0
114,14250,-550,404,988,662,-0.08392333984375,0.0616455078125,0.1507568359375,0.10101318359375,-0.08392333984375,0.0616455078125,0.1507568359375,0.10101318359375,,,14252,15,1,15,0
115,14375,-508,450,994,624,-0.0775146484375,0.06866455078125,0.15167236328125,0.09521484375,-0.0775146484375,0.06866455078125,0.15167236328125,0.09521484375,,,14377,15,1,15,0
116,14500,-464,494,998,584,-0.07080078125,0.07537841796875,0.15228271484375,0.089111328125,-0.07080078125,0.07537841796875,0.15228271484375,0.089111328125,,,14502,15,1,15,0
117,14625,-419,536,999,543,-0.063934326171875,0.081787109375,0.152435302734375,0.082855224609375,-0.063934326171875,0.081787109375,0.152435302734375,0.082855224609375,,,14627,15,1,15,0
118,14750,-373,578,998,501,-0.056915283203125,0.08819580078125,0.15228271484375,0.076446533203125,-0.056915283203125,0.08819580078125,0.15228271484375,0.076446533203125,,,14752,15,1,15,0
119,14875,-327,618,995,457,-0.049896240234375,0.09429931640625,0.151824951171875,0.069732666015625,-0.049896240234375,0.09429931640625,0.151824951171875,0.069732666015625,,,14877,15,1,15,0
120,15000,-279,656,989,412,-0.042572021484375,0.10009765625,0.150909423828125,0.0628662109375,-0.042572021484375,0.10009765625,0.150909423828125,0.0628662109375,,,15002,15,1,15,0
121,15125,-231,693,980,366,-0.035247802734375,0.105743408203125,0.1495361328125,0.05584716796875,-0.035247802734375,0.105743408203125,0.1495361328125,0.05584716796875,,,15127,15,1,15,0
122,15250,-182,728,969,319,-0.02777099609375,0.111083984375,0.147857666015625,0.048675537109375,-0.02777099609375,0.111083984375,0.147857666015625,0.048675537109375,,,15252,15,1,15,0
123,15375,-132,762,956,271,-0.0201416015625,0.11627197265625,0.1458740234375,0.041351318359375,-0.0201416015625,0.11627197265625,0.1458740234375,0.041351318359375,,,15377,15,1,15,0
124,15500,-83,793,940,222,-0.012664794921875,0.121002197265625,0.1434326171875,0.03387451171875,-0.012664794921875,0.121002197265625,0.1434326171875,0.03387451171875,,,15502,15,1,15,0
125,15625,-33,823,922,173,-0.005035400390625,0.125579833984375,0.14068603515625,0.026397705078125,-0.005035400390625,0.125579833984375,0.14068603515625,0.026397705078125,,,15627,15,1,15,0
126,15750,16,850,902,124,0.00244140625,0.12969970703125,0.13763427734375,0.0189208984375,0.00244140625,0.12969970703125,0.13763427734375,0.0189208984375,,,15752,15,1,15,0
127,15875,66,875,879,74,0.01007080078125,0.133514404296875,0.134124755859375,0.01129150390625,0.01007080078125,0.133514404296875,0.134124755859375,0.01129150390625,,,15877,15,1,15,0
128,16000,116,898,854,24,0.0177001953125,0.13702392578125,0.13031005859375,0.003662109375,0.0177001953125,0.13702392578125,0.13031005859375,0.003662109375,,,16002,15,1,15,0
129,16125,166,919,827,-25,0.02532958984375,0.140228271484375,0.126190185546875,-0.003814697265625,0.02532958984375,0.140228271484375,0.126190185546875,-0.003814697265625,,,16127,15,1,15,0
130,16250,215,937,798,-75,0.032806396484375,0.142974853515625,0.12176513671875,-0.011444091796875,0.032806396484375,0.142974853515625,0.12176513671875,-0.011444091796875,,,16252,15,1,15,0
131,16375,263,954,767,-124,0.040130615234375,0.14556884765625,0.117034912109375,-0.0189208984375,0.040130615234375,0.14556884765625,0.117034912109375,-0.0189208984375,,,16377,15,1,15,0
132,16500,311,967,734,-174,0.047454833984375,0.147552490234375,0.11199951171875,-0.02655029296875,0.047454833984375,0.147552490234375,0.11199951171875,-0.02655029296875,,,16502,15,1,15,0
133,16625,358,979,699,-223,0.05462646484375,0.149383544921875,0.106658935546875,-0.034027099609375,0.05462646484375,0.149383544921875,0.106658935546875,-0.034027099609375,,,16627,15,1,15,0
134,16750,404,988,662,-271,0.0616455078125,0.1507568359375,0.10101318359375,-0.041351318359375,0.0616455078125,0.1507568359375,0.10101318359375,-0.041351318359375,,,16752,15,1,15,0
135,16875,450,994,624,-319,0.06866455078125,0.15167236328125,0.09521484375,-0.048675537109375,0.06866455078125,0.15167236328125,0.09521484375,-0.048675537109375,,,16877,15,1,15,0
136,17000,494,998,584,-366,0.07537841796875,0.15228271484375,0.089111328125,-0.05584716796875,0.07537841796875,0.15228271484375,0.089111328125,-0.05584716796875,,,17002,15,1,15,0
137,17125,536,999,543,-412,0.081787109375,0.152435302734375,0.082855224609375,-0.0628662109375,0.081787109375,0.152435302734375,0.082855224609375,-0.0628662109375,,,17127,15,1,15,0
138,17250,578,998,501,-457,0.08819580078125,0.15228271484375,0.076446533203125,-0.069732666015625,0.08819580078125,0.15228271484375,0.076446533203125,-0.069732666015625,,,17252,15,1,15,0
139,17375,618,995,457,-501,0.09429931640625,0.151824951171875,0.069732666015625,-0.076446533203125,0.09429931640625,0.151824951171875,0.069732666015625,-0.076446533203125,,,17377,15,1,15,0
140,17500,656,989,412,-544,0.10009765625,0.150909423828125,0.0628662109375,-0.0830078125,0.10009765625,0.150909423828125,0.0628662109375,-0.0830078125,,,17502,15,1,15,0
141,17625,693,980,366,-585,0.105743408203125,0.1495361328125,0.05584716796875,-0.089263916015625,0.105743408203125,0.1495361328125,0.05584716796875,-0.089263916015625,,,17627,15,1,15,0
142,17750,728,969,319,-625,0.111083984375,0.147857666015625,0.048675537109375,-0.095367431640625,0.111083984375,0.147857666015625,0.048675537109375,-0.095367431640625,,,17752,15,1,15,0
143,17875,762,956,271,-663,0.11627197265625,0.1458740234375,0.041351318359375,-0.101165771484375,0.11627197265625,0.1458740234375,0.041351318359375,-0.101165771484375,,,17877,15,1,15,0
144,18000,793,940,222,-699,0.121002197265625,0.1434326171875,0.03387451171875,-0.106658935546875,0.121002197265625,0.1434326171875,0.03387451171875,-0.106658935546875,,,18002,15,1,15,0
145,18125,823,922,173,-734,0.125579833984375,0.14068603515625,0.026397705078125,-0.11199951171875,0.125579833984375,0.14068603515625,0.026397705078125,-0.11199951171875,,,18127,15,1,15,0
146,18250,850,902,124,-767,0.12969970703125,0.13763427734375,0.0189208984375,-0.117034912109375,0.12969970703125,0.13763427734375,0.0189208984375,-0.117034912109375,,,18252,15,1,15,0
147,18375,875,879,74,-798,0.133514404296875,0.134124755859375,0.01129150390625,-0.12176513671875,0.133514404296875,0.134124755859375,0.01129150390625,-0.12176513671875,,,18377,15,1,15,0
148,18500,898,854,24,-827,0.13702392578125,0.13031005859375,0.003662109375,-0.126190185546875,0.13702392578125,0.13031005859375,0.003662109375,-0.126190185546875,,,18502,15,1,15,0
149,18625,919,827,-25,-854,0.140228271484375,0.126190185546875,-0.003814697265625,-0.13031005859375,0.140228271484375,0.126190185546875,-0.003814697265625,-0.13031005859375,,,18627,15,1,15,0
150,18750,937,798,-75,-879,0.142974853515625,0.12176513671875,-0.011444091796875,-0.134124755859375,0.142974853515625,0.12176513671875,-0.011444091796875,-0.134124755859375,,,18752,15,1,15,0
151,18875,954,767,-124,-902,0.14556884765625,0.117034912109375,-0.0189208984375,-0.13763427734375,0.14556884765625,0.117034912109375,-0.0189208984375,-0.13763427734375,,,18877,15,1,15,0
152,19000,967,734,-174,-922,0.147552490234375,0.11199951171875,-0.02655029296875,-0.14068603515625,0.147552490234375,0.11199951171875,-0.02655029296875,-0.14068603515625,,,19002,15,1,15,0
153,19125,979,699,-223,-940,0.149383544921875,0.106658935546875,-0.034027099609375,-0.1434326171875,0.149383544921875,0.106658935546875,-0.034027099609375,-0.1434326171875,,,19127,15,1,15,0
154,19250,988,662,-271,-956,0.1507568359375,0.10101318359375,-0.041351318359375,-0.1458740234375,0.1507568359375,0.10101318359375,-0.041351318359375,-0.1458740234375,,,19252,15,1,15,0
155,19375,994,624,-319,-969,0.15167236328125,0.09521484375,-0.048675537109375,-0.147857666015625,0.15167236328125,0.09521484375,-0.048675537109375,-0.147857666015625,,,19377,15,1,15,0
156,19500,998,584,-366,-980,0.15228271484375,0.089111328125,-0.05584716796875,-0.1495361328125,0.15228271484375,0.089111328125,-0.05584716796875,-0.1495361328125,,,19502,15,1,15,0
157,19625,999,543,-412,-989,0.152435302734375,0.082855224609375,-0.0628662109375,-0.150909423828125,0.152435302734375,0.082855224609375,-0.0628662109375,-0.150909423828125,,,19627,15,1,15,0
158,19750,998,501,-457,-995,0.15228271484375,0.076446533203125,-0.069732666015625,-0.151824951171875,0.15228271484375,0.076446533203125,-0.069732666015625,-0.151824951171875,,,19752,15,1,15,0
159,19875,995,457,-501,-998,0.151824951171875,0.069732666015625,-0.076446533203125,-0.15228271484375,0.151824951171875,0.069732666015625,-0.076446533203125,-0.15228271484375,,,19877,15,1,15,0
160,20000,989,412,-544,-999,0.150909423828125,0.0628662109375,-0.0830078125,-0.152435302734375,0.150909423828125,0.0628662109375,-0.0830078125,-0.152435302734375,,,20002,15,1,15,0
161,20125,980,366,-585,-998,0.1495361328125,0.05584716796875,-0.089263916015625,-0.15228271484375,0.1495361328125,0.05584716796875,-0.089263916015625,-0.15228271484375,,,20127,15,1,15,0
162,20250,969,319,-625,-994,0.147857666015625,0.048675537109375,-0.095367431640625,-0.15167236328125,0.147857666015625,0.048675537109375,-0.095367431640625,-0.15167236328125,,,20252,15,1,15,0
163,20375,956,271,-663,-988,0.1458740234375,0.041351318359375,-0.101165771484375,-0.1507568359375,0.1458740234375,0.041351318359375,-0.101165771484375,-0.1507568359375,,,20377,15,1,15,0
164,20500,940,222,-699,-979,0.1434326171875,0.03387451171875,-0.106658935546875,-0.149383544921875,0.1434326171875,0.03387451171875,-0.106658935546875,-0.149383544921875,,,20502,15,1,15,0
165,20625,922,173,-734,-967,0.14068603515625,0.026397705078125,-0.11199951171875,-0.147552490234375,0.14068603515625,0.026397705078125,-0.11199951171875,-0.147552490234375,,,20627,15,1,15,0
166,20750,902,124,-767,-954,0.13763427734375,0.0189208984375,-0.117034912109375,-0.14556884765625,0.13763427734375,0.0189208984375,-0.117034912109375,-0.14556884765625,,,20752,15,1,15,0
167,20875,879,74,-798,-937,0.134124755859375,0.01129150390625,-0.12176513671875,-0.142974853515625,0.134124755859375,0.01129150390625,-0.12176513671875,-0.142974853515625,,,20877,15,1,15,0
168,21000,854,24,-827,-919,0.13031005859375,0.003662109375,-0.126190185546875,-0.140228271484375,0.13031005859375,0.003662109375,-0.126190185546875,-0.140228271484375,,,21002,15,1,15,0
169,21125,827,-25,-854,-898,0.126190185546875,-0.003814697265625,-0.13031005859375,-0.13702392578125,0.126190185546875,-0.003814697265625,-0.13031005859375,-0.13702392578125,,,21127,15,1,15,0
170,21250,798,-75,-879,-875,0.12176513671875,-0.011444091796875,-0.134124755859375,-0.133514404296875,0.12176513671875,-0.011444091796875,-0.134124755859375,-0.133514404296875,,,21252,15,1,15,0
171,21375,767,-124,-902,-850,0.117034912109375,-0.0189208984375,-0.13763427734375,-0.12969970703125,0.117034912109375,-0.0189208984375,-0.13763427734375,-0.12969970703125,,,21377,15,1,15,0
172,21500,734,-174,-922,-822,0.11199951171875,-0.02655029296875,-0.14068603515625,-0.12542724609375,0.11199951171875,-0.02655029296875,-0.14068603515625,-0.12542724609375,,,21502,15,1,15,0
173,21625,699,-223,-940,-793,0.106658935546875,-0.034027099609375,-0.1434326171875,-0.121002197265625,0.106658935546875,-0.034027099609375,-0.1434326171875,-0.121002197265625,,,21627,15,1,15,0
174,21750,662,-271,-956,-761,0.10101318359375,-0.041351318359375,-0.1458740234375,-0.116119384765625,0.10101318359375,-0.041351318359375,-0.1458740234375,-0.116119384765625,,,21752,15,1,15,0
175,21875,624,-319,-969,-728,0.09521484375,-0.048675537109375,-0.147857666015625,-0.111083984375,0.09521484375,-0.048675537109375,-0.147857666015625,-0.111083984375,,,21877,15,1,15,0
176,22000,584,-366,-980,-693,0.089111328125,-0.05584716796875,-0.1495361328125,-0.105743408203125,0.089111328125,-0.05584716796875,-0.1495361328125,-0.105743408203125,,,22002,15,1,15,0
177,22125,543,-412,-989,-656,0.082855224609375,-0.0628662109375,-0.150909423828125,-0.10009765625,0.082855224609375,-0.0628662109375,-0.150909423828125,-0.10009765625,,,22127,15,1,15,0
178,22250,501,-457,-995,-618,0.076446533203125,-0.069732666015625,-0.151824951171875,-0.09429931640625,0.076446533203125,-0.069732666015625,-0.151824951171875,-0.09429931640625,,,22252,15,1,15,0
179,22375,457,-501,-998,-578,0.069732666015625,-0.076446533203125,-0.15228271484375,-0.08819580078125,0.069732666015625,-0.076446533203125,-0.15228271484375,-0.08819580078125,,,22377,15,1,15,0
180,22500,412,-544,-999,-536,0.0628662109375,-0.0830078125,-0.152435302734375,-0.081787109375,0.0628662109375,-0.0830078125,-0.152435302734375,-0.081787109375,,,22502,15,1,15,0
181,22625,366,-585,-998,-493,0.05584716796875,-0.089263916015625,-0.15228271484375,-0.075225830078125,0.05584716796875,-0.089263916015625,-0.15228271484375,-0.075225830078125,,,22627,15,1,15,0
182,22750,319,-625,-994,-449,0.048675537109375,-0.095367431640625,-0.15167236328125,-0.068511962890625,0.048675537109375,-0.095367431640625,-0.15167236328125,-0.068511962890625,,,22752,15,1,15,0
183,22875,271,-663,-988,-404,0.041351318359375,-0.101165771484375,-0.1507568359375,-0.0616455078125,0.041351318359375,-0.101165771484375,-0.1507568359375,-0.0616455078125,,,22877,15,1,15,0
184,23000,222,-699,-979,-358,0.03387451171875,-0.106658935546875,-0.149383544921875,-0.05462646484375,0.03387451171875,-0.106658935546875,-0.149383544921875,-0.05462646484375,,,23002,15,1,15,0
185,23125,173,-734,-967,-311,0.026397705078125,-0.11199951171875,-0.147552490234375,-0.047454833984375,0.026397705078125,-0.11199951171875,-0.147552490234375,-0.047454833984375,,,23127,15,1,15,0
186,23250,124,-767,-954,-263,0.0189208984375,-0.117034912109375,-0.14556884765625,-0.040130615234375,0.0189208984375,-0.117034912109375,-0.14556884765625,-0.040130615234375,,,23252,15,1,15,0
187,23375,74,-798,-937,-214,0.01129150390625,-0.12176513671875,-0.142974853515625,-0.03265380859375,0.01129150390625,-0.12176513671875,-0.142974853515625,-0.03265380859375,,,23377,15,1,15,0
188,23500,24,-827,-919,-165,0.003662109375,-0.126190185546875,-0.140228271484375,-0.025177001953125,0.003662109375,-0.126190185546875,-0.140228271484375,-0.025177001953125,,,23502,15,1,15,0
189,23625,-25,-854,-898,-116,-0.003814697265625,-0.13031005859375,-0.13702392578125,-0.0177001953125,-0.003814697265625,-0.13031005859375,-0.13702392578125,-0.0177001953125,,,23627,15,1,15,0
190,23750,-75,-879,-875,-66,-0.011444091796875,-0.134124755859375,-0.133514404296875,-0.01007080078125,-0.011444091796875,-0.134124755859375,-0.133514404296875,-0.01007080078125,,,23752,15,1,15,0
191,23875,-124,-902,-850,-16,-0.0189208984375,-0.13763427734375,-0.12969970703125,-0.00244140625,-0.0189208984375,-0.13763427734375,-0.12969970703125,-0.00244140625,,,23877,15,1,15,0
192,24000,-174,-922,-822,33,-0.02655029296875,-0.14068603515625,-0.12542724609375,0.005035400390625,-0.02655029296875,-0.14068603515625,-0.12542724609375,0.005035400390625,,,24002,15,1,15,0
193,24125,-223,-940,-793,83,-0.034027099609375,-0.1434326171875,-0.121002197265625,0.012664794921875,-0.034027099609375,-0.1434326171875,-0.121002197265625,0.012664794921875,,,24127,15,1,15,0
194,24250,-271,-956,-761,133,-0.041351318359375,-0.1458740234375,-0.116119384765625,0.020294189453125,-0.041351318359375,-0.1458740234375,-0.116119384765625,0.020294189453125,,,24252,15,1,15,0
195,24375,-319,-969,-728,182,-0.048675537109375,-0.147857666015625,-0.111083984375,0.02777099609375,-0.048675537109375,-0.147857666015625,-0.111083984375,0.02777099609375,,,24377,15,1,15,0
196,24500,-366,-980,-693,231,-0.05584716796875,-0.1495361328125,-0.105743408203125,0.035247802734375,-0.05584716796875,-0.1495361328125,-0.105743408203125,0.035247802734375,,,24502,15,1,15,0
197,24625,-412,-989,-656,279,-0.0628662109375,-0.150909423828125,-0.10009765625,0.042572021484375,-0.0628662109375,-0.150909423828125,-0.10009765625,0.042572021484375,,,24627,15,1,15,0
198,24750,-457,-995,-618,327,-0.069732666015625,-0.151824951171875,-0.09429931640625,0.049896240234375,-0.069732666015625,-0.151824951171875,-0.09429931640625,0.049896240234375,,,24752,15,1,15,0
199,24875,-501,-998,-578,374,-0.076446533203125,-0.15228271484375,-0.08819580078125,0.05706787109375,-0.076446533203125,-0.15228271484375,-0.08819580078125,0.05706787109375,,,24877,15,1,15,0
200,25000,-544,-999,-536,420,-0.0830078125,-0.152435302734375,-0.081787109375,0.0640869140625,-0.0830078125,-0.152435302734375,-0.081787109375,0.0640869140625,,,25002,15,1,15,0
201,25125,-585,-998,-493,464,-0.089263916015625,-0.15228271484375,-0.075225830078125,0.07080078125,-0.089263916015625,-0.15228271484375,-0.075225830078125,0.07080078125,,,25127,15,1,15,0
202,25250,-625,-994,-449,508,-0.095367431640625,-0.15167236328125,-0.068511962890625,0.0775146484375,-0.095367431640625,-0.15167236328125,-0.068511962890625,0.0775146484375,,,25252,15,1,15,0
203,25375,-663,-988,-404,551,-0.101165771484375,-0.1507568359375,-0.0616455078125,0.084075927734375,-0.101165771484375,-0.1507568359375,-0.0616455078125,0.084075927734375,,,25377,15,1,15,0
204,25500,-699,-979,-358,592,-0.106658935546875,-0.149383544921875,-0.05462646484375,0.09033203125,-0.106658935546875,-0.149383544921875,-0.05462646484375,0.09033203125,,,25502,15,1,15,0
205,25625,-734,-967,-311,631,-0.11199951171875,-0.147552490234375,-0.047454833984375,0.096282958984375,-0.11199951171875,-0.147552490234375,-0.047454833984375,0.096282958984375,,,25627,15,1,15,0
206,25750,-767,-954,-263,669,-0.117034912109375,-0.14556884765625,-0.040130615234375,0.102081298828125,-0.117034912109375,-0.14556884765625,-0.040130615234375,0.102081298828125,,,25752,15,1,15,0
207,25875,-798,-937,-214,705,-0.12176513671875,-0.142974853515625,-0.03265380859375,0.107574462890625,-0.12176513671875,-0.142974853515625,-0.03265380859375,0.107574462890625,,,25877,15,1,15,0
208,26000,-827,-919,-165,740,-0.126190185546875,-0.140228271484375,-0.025177001953125,0.1129150390625,-0.126190185546875,-0.140228271484375,-0.025177001953125,0.1129150390625,,,26002,15,1,15,0
209,26125,-854,-898,-116,773,-0.13031005859375,-0.13702392578125,-0.0177001953125,0.117950439453125,-0.13031005859375,-0.13702392578125,-0.0177001953125,0.117950439453125,,,26127,15,1,15,0
210,26250,-879,-875,-66,803,-0.134124755859375,-0.133514404296875,-0.01007080078125,0.122528076171875,-0.134124755859375,-0.133514404296875,-0.01007080078125,0.122528076171875,,,26252,15,1,15,0
211,26375,-902,-850,-16,832,-0.13763427734375,-0.12969970703125,-0.00244140625,0.126953125,-0.13763427734375,-0.12969970703125,-0.00244140625,0.126953125,,,26377,15,1,15,0
212,26500,-922,-822,33,859,-0.14068603515625,-0.12542724609375,0.005035400390625,0.131072998046875,-0.14068603515625,-0.12542724609375,0.005035400390625,0.131072998046875,,,26502,15,1,15,0
213,26625,-940,-793,83,883,-0.1434326171875,-0.121002197265625,0.012664794921875,0.134735107421875,-0.1434326171875,-0.121002197265625,0.012664794921875,0.134735107421875,,,26627,15,1,15,0
214,26750,-956,-761,133,905,-0.1458740234375,-0.116119384765625,0.020294189453125,0.138092041015625,-0.1458740234375,-0.116119384765625,0.020294189453125,0.138092041015625,,,26752,15,1,15,0
215,26875,-969,-728,182,925,-0.147857666015625,-0.111083984375,0.02777099609375,0.141143798828125,-0.147857666015625,-0.111083984375,0.02777099609375,0.141143798828125,,,26877,15,1,15,0
216,27000,-980,-693,231,943,-0.1495361328125,-0.105743408203125,0.035247802734375,0.143890380859375,-0.1495361328125,-0.105743408203125,0.035247802734375,0.143890380859375,,,27002,15,1,15,0
217,27125,-989,-656,279,959,-0.150909423828125,-0.10009765625,0.042572021484375,0.146331787109375,-0.150909423828125,-0.10009765625,0.042572021484375,0.146331787109375,,,27127,15,1,15,0
218,27250,-995,-618,327,972,-0.151824951171875,-0.09429931640625,0.049896240234375,0.1483154296875,-0.151824951171875,-0.09429931640625,0.049896240234375,0.1483154296875,,,27252,15,1,15,0
219,27375,-998,-578,374,982,-0.15228271484375,-0.08819580078125,0.05706787109375,0.14984130859375,-0.15228271484375,-0.08819580078125,0.05706787109375,0.14984130859375,,,27377,15,1,15,0
220,27500,-999,-536,420,990,-0.152435302734375,-0.081787109375,0.0640869140625,0.15106201171875,-0.152435302734375,-0.081787109375,0.0640869140625,0.15106201171875,,,27502,15,1,15,0
221,27625,-998,-493,464,996,-0.15228271484375,-0.075225830078125,0.07080078125,0.1519775390625,-0.15228271484375,-0.075225830078125,0.07080078125,0.1519775390625,,,27627,15,1,15,0
222,27750,-994,-449,508,999,-0.15167236328125,-0.068511962890625,0.0775146484375,0.152435302734375,-0.15167236328125,-0.068511962890625,0.0775146484375,0.152435302734375,,,27752,15,1,15,0
223,27875,-988,-404,551,999,-0.1507568359375,-0.0616455078125,0.084075927734375,0.152435302734375,-0.1507568359375,-0.0616455078125,0.084075927734375,0.152435302734375,,,27877,15,1,15,0
224,28000,-979,-358,592,998,-0.149383544921875,-0.05462646484375,0.09033203125,0.15228271484375,-0.149383544921875,-0.05462646484375,0.09033203125,0.15228271484375,,,28002,15,1,15,0
225,28125,-967,-311,631,993,-0.147552490234375,-0.047454833984375,0.096282958984375,0.151519775390625,-0.147552490234375,-0.047454833984375,0.096282958984375,0.151519775390625,,,28127,15,1,15,0
226,28250,-954,-263,669,986,-0.14556884765625,-0.040130615234375,0.102081298828125,0.15045166015625,-0.14556884765625,-0.040130615234375,0.102081298828125,0.15045166015625,,,28252,15,1,15,0
227,28375,-937,-214,705,977,-0.142974853515625,-0.03265380859375,0.107574462890625,0.149078369140625,-0.142974853515625,-0.03265380859375,0.107574462890625,0.149078369140625,,,28377,15,1,15,0
228,28500,-919,-165,740,965,-0.140228271484375,-0.025177001953125,0.1129150390625,0.147247314453125,-0.140228271484375,-0.025177001953125,0.1129150390625,0.147247314453125,,,28502,15,1,15,0
229,28625,-898,-116,773,951,-0.13702392578125,-0.0177001953125,0.117950439453125,0.145111083984375,-0.13702392578125,-0.0177001953125,0.117950439453125,0.145111083984375,,,28627,15,1,15,0
230,28750,-875,-66,803,934,-0.133514404296875,-0.01007080078125,0.122528076171875,0.14251708984375,-0.133514404296875,-0.01007080078125,0.122528076171875,0.14251708984375,,,28752,15,1,15,0
231,28875,-850,-16,832,915,-0.12969970703125,-0.00244140625,0.126953125,0.139617919921875,-0.12969970703125,-0.00244140625,0.126953125,0.139617919921875,,,28877,15,1,15,0
232,29000,-822,33,859,894,-0.12542724609375,0.005035400390625,0.131072998046875,0.13641357421875,-0.12542724609375,0.005035400390625,0.131072998046875,0.13641357421875,,,29002,15,1,15,0
233,29125,-793,83,883,871,-0.121002197265625,0.012664794921875,0.134735107421875,0.132904052734375,-0.121002197265625,0.012664794921875,0.134735107421875,0.132904052734375,,,29127,15,1,15,0
234,29250,-761,133,905,845,-0.116119384765625,0.020294189453125,0.138092041015625,0.128936767578125,-0.116119384765625,0.020294189453125,0.138092041015625,0.128936767578125,,,29252,15,1,15,0
235,29375,-728,182,925,818,-0.111083984375,0.02777099609375,0.141143798828125,0.12481689453125,-0.111083984375,0.02777099609375,0.141143798828125,0.12481689453125,,,29377,15,1,15,0
236,29500,-693,231,943,788,-0.105743408203125,0.035247802734375,0.143890380859375,0.1202392578125,-0.105743408203125,0.035247802734375,0.143890380859375,0.1202392578125,,,29502,15,1,15,0
237,29625,-656,279,959,756,-0.10009765625,0.042572021484375,0.146331787109375,0.1153564453125,-0.10009765625,0.042572021484375,0.146331787109375,0.1153564453125,,,29627,15,1,15,0
238,29750,-618,327,972,722,-0.09429931640625,0.049896240234375,0.1483154296875,0.11016845703125,-0.09429931640625,0.049896240234375,0.1483154296875,0.11016845703125,,,29752,15,1,15,0
239,29875,-578,374,982,687,-0.08819580078125,0.05706787109375,0.14984130859375,0.104827880859375,-0.08819580078125,0.05706787109375,0.14984130859375,0.104827880859375,,,29877,15,1,15,0
240,30000,-536,420,990,650,-0.081787109375,0.0640869140625,0.15106201171875,0.09918212890625,-0.081787109375,0.0640869140625,0.15106201171875,0.09918212890625,,,30002,15,1,15,0
241,30125,-493,464,996,611,-0.075225830078125,0.07080078125,0.1519775390625,0.093231201171875,-0.075225830078125,0.07080078125,0.1519775390625,0.093231201171875,,,30127,15,1,15,0
242,30250,-449,508,999,571,-0.068511962890625,0.0775146484375,0.152435302734375,0.087127685546875,-0.068511962890625,0.0775146484375,0.152435302734375,0.087127685546875,,,30252,15,1,15,0
243,30375,-404,551,999,529,-0.0616455078125,0.084075927734375,0.152435302734375,0.080718994140625,-0.0616455078125,0.084075927734375,0.152435302734375,0.080718994140625,,,30377,15,1,15,0
244,30500,-358,592,998,486,-0.05462646484375,0.09033203125,0.15228271484375,0.07415771484375,-0.05462646484375,0.09033203125,0.15228271484375,0.07415771484375,,,30502,15,1,15,0
245,30625,-311,631,993,442,-0.047454833984375,0.096282958984375,0.151519775390625,0.06744384765625,-0.047454833984375,0.096282958984375,0.151519775390625,0.06744384765625,,,30627,15,1,15,0
246,30750,-263,669,986,396,-0.040130615234375,0.102081298828125,0.15045166015625,0.0604248046875,-0.040130615234375,0.102081298828125,0.15045166015625,0.0604248046875,,,30752,15,1,15,0
247,30875,-214,705,977,350,-0.03265380859375,0.107574462890625,0.149078369140625,0.05340576171875,-0.03265380859375,0.107574462890625,0.149078369140625,0.05340576171875,,,30877,15,1,15,0
248,31000,-165,740,965,303,-0.025177001953125,0.1129150390625,0.147247314453125,0.046234130859375,-0.025177001953125,0.1129150390625,0.147247314453125,0.046234130859375,,,31002,15,1,15,0
249,31125,-116,773,951,255,-0.0177001953125,0.117950439453125,0.145111083984375,0.038909912109375,-0.0177001953125,0.117950439453125,0.145111083984375,0.038909912109375,,,31127,15,1,15,0
250,31250,-66,803,934,206,-0.01007080078125,0.122528076171875,0.14251708984375,0.03143310546875,-0.01007080078125,0.122528076171875,0.14251708984375,0.03143310546875,,,31252,15,1,15,0
251,31375,-16,832,915,157,-0.00244140625,0.126953125,0.139617919921875,0.023956298828125,-0.00244140625,0.126953125,0.139617919921875,0.023956298828125,,,31377,15,1,15,0
252,31500,33,859,894,107,0.005035400390625,0.131072998046875,0.13641357421875,0.016326904296875,0.005035400390625,0.131072998046875,0.13641357421875,0.016326904296875,,,31502,15,1,15,0
253,31625,83,883,871,57,0.012664794921875,0.134735107421875,0.132904052734375,0.008697509765625,0.012664794921875,0.134735107421875,0.132904052734375,0.008697509765625,,,31627,15,1,15,0
254,31750,133,905,845,7,0.020294189453125,0.138092041015625,0.128936767578125,0.001068115234375,0.020294189453125,0.138092041015625,0.128936767578125,0.001068115234375,,,31752,15,1,15,0
255,31875,182,925,818,-42,0.02777099609375,0.141143798828125,0.12481689453125,-0.00640869140625,0.02777099609375,0.141143798828125,0.12481689453125,-0.00640869140625,,,31877,15,1,15,0
256,32000,231,943,788,-91,0.035247802734375,0.143890380859375,0.1202392578125,-0.013885498046875,0.035247802734375,0.143890380859375,0.1202392578125,-0.013885498046875,,,32002,15,1,15,0
257,32125,279,959,756,-141,0.042572021484375,0.146331787109375,0.1153564453125,-0.021514892578125,0.042572021484375,0.146331787109375,0.1153564453125,-0.021514892578125,,,32127,15,1,15,0
258,32250,327,972,722,-190,0.049896240234375,0.1483154296875,0.11016845703125,-0.02899169921875,0.049896240234375,0.1483154296875,0.11016845703125,-0.02899169921875,,,32252,15,1,15,0
259,32375,374,982,687,-239,0.05706787109375,0.14984130859375,0.104827880859375,-0.036468505859375,0.05706787109375,0.14984130859375,0.104827880859375,-0.036468505859375,,,32377,15,1,15,0
260,32500,420,990,650,-287,0.0640869140625,0.15106201171875,0.09918212890625,-0.043792724609375,0.0640869140625,0.15106201171875,0.09918212890625,-0.043792724609375,,,32502,15,1,15,0
261,32625,464,996,611,-335,0.07080078125,0.1519775390625,0.093231201171875,-0.051116943359375,0.07080078125,0.1519775390625,0.093231201171875,-0.051116943359375,,,32627,15,1,15,0
262,32750,508,999,571,-382,0.0775146484375,0.152435302734375,0.087127685546875,-0.05828857421875,0.0775146484375,0.152435302734375,0.087127685546875,-0.05828857421875,,,32752,15,1,15,0
263,32875,551,999,529,-427,0.084075927734375,0.152435302734375,0.080718994140625,-0.065155029296875,0.084075927734375,0.152435302734375,0.080718994140625,-0.065155029296875,,,32877,15,1,15,0
264,33000,592,998,486,-472,0.09033203125,0.15228271484375,0.07415771484375,-0.072021484375,0.09033203125,0.15228271484375,0.07415771484375,-0.072021484375,,,33002,15,1,15,0
265,33125,631,993,442,-515,0.096282958984375,0.151519775390625,0.06744384765625,-0.078582763671875,0.096282958984375,0.151519775390625,0.06744384765625,-0.078582763671875,,,33127,15,1,15,0
266,33250,669,986,396,-558,0.102081298828125,0.15045166015625,0.0604248046875,-0.08514404296875,0.102081298828125,0.15045166015625,0.0604248046875,-0.08514404296875,,,33252,15,1,15,0
267,33375,705,977,350,-598,0.107574462890625,0.149078369140625,0.05340576171875,-0.09124755859375,0.107574462890625,0.149078369140625,0.05340576171875,-0.09124755859375,,,33377,15,1,15,0
268,33500,740,965,303,-638,0.1129150390625,0.147247314453125,0.046234130859375,-0.09735107421875,0.1129150390625,0.147247314453125,0.046234130859375,-0.09735107421875,,,33502,15,1,15,0
269,33625,773,951,255,-675,0.117950439453125,0.145111083984375,0.038909912109375,-0.102996826171875,0.117950439453125,0.145111083984375,0.038909912109375,-0.102996826171875,,,33627,15,1,15,0
270,33750,803,934,206,-711,0.122528076171875,0.14251708984375,0.03143310546875,-0.108489990234375,0.122528076171875,0.14251708984375,0.03143310546875,-0.108489990234375,,,33752,15,1,15,0
271,33875,832,915,157,-746,0.126953125,0.139617919921875,0.023956298828125,-0.11383056640625,0.126953125,0.139617919921875,0.023956298828125,-0.11383056640625,,,33877,15,1,15,0
272,34000,859,894,107,-778,0.131072998046875,0.13641357421875,0.016326904296875,-0.11871337890625,0.131072998046875,0.13641357421875,0.016326904296875,-0.11871337890625,,,34002,15,1,15,0
273,34125,883,871,57,-808,0.134735107421875,0.132904052734375,0.008697509765625,-0.123291015625,0.134735107421875,0.132904052734375,0.008697509765625,-0.123291015625,,,34127,15,1,15,0
274,34250,905,845,7,-837,0.138092041015625,0.128936767578125,0.001068115234375,-0.127716064453125,0.138092041015625,0.128936767578125,0.001068115234375,-0.127716064453125,,,34252,15,1,15,0
275,34375,925,818,-42,-863,0.141143798828125,0.12481689453125,-0.00640869140625,-0.131683349609375,0.141143798828125,0.12481689453125,-0.00640869140625,-0.131683349609375,,,34377,15,1,15,0
276,34500,943,788,-91,-887,0.143890380859375,0.1202392578125,-0.013885498046875,-0.135345458984375,0.143890380859375,0.1202392578125,-0.013885498046875,-0.135345458984375,,,34502,15,1,15,0
277,34625,959,756,-141,-909,0.146331787109375,0.1153564453125,-0.021514892578125,-0.138702392578125,0.146331787109375,0.1153564453125,-0.021514892578125,-0.138702392578125,,,34627,15,1,15,0
278,34750,972,722,-190,-929,0.1483154296875,0.11016845703125,-0.02899169921875,-0.141754150390625,0.1483154296875,0.11016845703125,-0.02899169921875,-0.141754150390625,,,34752,15,1,15,0
279,34875,982,687,-239,-946,0.14984130859375,0.104827880859375,-0.036468505859375,-0.14434814453125,0.14984130859375,0.104827880859375,-0.036468505859375,-0.14434814453125,,,34877,15,1,15,0
280,35000,990,650,-287,-961,0.15106201171875,0.09918212890625,-0.043792724609375,-0.146636962890625,0.15106201171875,0.09918212890625,-0.043792724609375,-0.146636962890625,,,35002,15,1,15,0
281,35125,996,611,-335,-973,0.1519775390625,0.093231201171875,-0.051116943359375,-0.148468017578125,0.1519775390625,0.093231201171875,-0.051116943359375,-0.148468017578125,,,35127,15,1,15,0
282,35250,999,571,-382,-984,0.152435302734375,0.087127685546875,-0.05828857421875,-0.150146484375,0.152435302734375,0.087127685546875,-0.05828857421875,-0.150146484375,,,35252,15,1,15,0
283,35375,999,529,-427,-991,0.152435302734375,0.080718994140625,-0.065155029296875,-0.151214599609375,0.152435302734375,0.080718994140625,-0.065155029296875,-0.151214599609375,,,35377,15,1,15,0
284,35500,998,486,-472,-996,0.15228271484375,0.07415771484375,-0.072021484375,-0.1519775390625,0.15228271484375,0.07415771484375,-0.072021484375,-0.1519775390625,,,35502,15,1,15,0
285,35625,993,442,-515,-999,0.151519775390625,0.06744384765625,-0.078582763671875,-0.152435302734375,0.151519775390625,0.06744384765625,-0.078582763671875,-0.152435302734375,,,35627,15,1,15,0
286,35750,986,396,-558,-999,0.15045166015625,0.0604248046875,-0.08514404296875,-0.152435302734375,0.15045166015625,0.0604248046875,-0.08514404296875,-0.152435302734375,,,35752,15,1,15,0
287,35875,977,350,-598,-997,0.149078369140625,0.05340576171875,-0.09124755859375,-0.152130126953125,0.149078369140625,0.05340576171875,-0.09124755859375,-0.152130126953125,,,35877,15,1,15,0
288,36000,965,303,-638,-992,0.147247314453125,0.046234130859375,-0.09735107421875,-0.1513671875,0.147247314453125,0.046234130859375,-0.09735107421875,-0.1513671875,,,36002,15,1,15,0
289,36125,951,255,-675,-985,0.145111083984375,0.038909912109375,-0.102996826171875,-0.150299072265625,0.145111083984375,0.038909912109375,-0.102996826171875,-0.150299072265625,,,36127,15,1,15,0
290,36250,934,206,-711,-975,0.14251708984375,0.03143310546875,-0.108489990234375,-0.148773193359375,0.14251708984375,0.03143310546875,-0.108489990234375,-0.148773193359375,,,36252,15,1,15,0
291,36375,915,157,-746,-963,0.139617919921875,0.023956298828125,-0.11383056640625,-0.146942138671875,0.139617919921875,0.023956298828125,-0.11383056640625,-0.146942138671875,,,36377,15,1,15,0
292,36500,894,107,-778,-948,0.13641357421875,0.016326904296875,-0.11871337890625,-0.1446533203125,0.13641357421875,0.016326904296875,-0.11871337890625,-0.1446533203125,,,36502,15,1,15,0
293,36625,871,57,-808,-931,0.132904052734375,0.008697509765625,-0.123291015625,-0.142059326171875,0.132904052734375,0.008697509765625,-0.123291015625,-0.142059326171875,,,36627,15,1,15,0
294,36750,845,7,-837,-912,0.128936767578125,0.001068115234375,-0.127716064453125,-0.13916015625,0.128936767578125,0.001068115234375,-0.127716064453125,-0.13916015625,,,36752,15,1,15,0
295,36875,818,-42,-863,-891,0.12481689453125,-0.00640869140625,-0.131683349609375,-0.135955810546875,0.12481689453125,-0.00640869140625,-0.131683349609375,-0.135955810546875,,,36877,15,1,15,0
296,37000,788,-91,-887,-867,0.1202392578125,-0.013885498046875,-0.135345458984375,-0.132293701171875,0.1202392578125,-0.013885498046875,-0.135345458984375,-0.132293701171875,,,37002,15,1,15,0
297,37125,756,-141,-909,-841,0.1153564453125,-0.021514892578125,-0.138702392578125,-0.128326416015625,0.1153564453125,-0.021514892578125,-0.138702392578125,-0.128326416015625,,,37127,15,1,15,0
298,37250,722,-190,-929,-813,0.11016845703125,-0.02899169921875,-0.141754150390625,-0.124053955078125,0.11016845703125,-0.02899169921875,-0.141754150390625,-0.124053955078125,,,37252,15,1,15,0
299,37375,687,-239,-946,-783,0.104827880859375,-0.036468505859375,-0.14434814453125,-0.119476318359375,0.104827880859375,-0.036468505859375,-0.14434814453125,-0.119476318359375,,,37377,15,1,15,0
300,37500,650,-287,-961,-750,0.09918212890625,-0.043792724609375,-0.146636962890625,-0.11444091796875,0.09918212890625,-0.043792724609375,-0.146636962890625,-0.11444091796875,,,37502,15,1,15,0
301,37625,611,-335,-973,-717,0.093231201171875,-0.051116943359375,-0.148468017578125,-0.109405517578125,0.093231201171875,-0.051116943359375,-0.148468017578125,-0.109405517578125,,,37627,15,1,15,0
302,37750,571,-382,-984,-681,0.087127685546875,-0.05828857421875,-0.150146484375,-0.103912353515625,0.087127685546875,-0.05828857421875,-0.150146484375,-0.103912353515625,,,37752,15,1,15,0
303,37875,529,-427,-991,-643,0.080718994140625,-0.065155029296875,-0.151214599609375,-0.098114013671875,0.080718994140625,-0.065155029296875,-0.151214599609375,-0.098114013671875,,,37877,15,1,15,0
304,38000,486,-472,-996,-604,0.07415771484375,-0.072021484375,-0.1519775390625,-0.0921630859375,0.07415771484375,-0.072021484375,-0.1519775390625,-0.0921630859375,,,38002,15,1,15,0
305,38125,442,-515,-999,-564,0.06744384765625,-0.078582763671875,-0.152435302734375,-0.0860595703125,0.06744384765625,-0.078582763671875,-0.152435302734375,-0.0860595703125,,,38127,15,1,15,0
306,38250,396,-558,-999,-522,0.0604248046875,-0.08514404296875,-0.152435302734375,-0.07965087890625,0.0604248046875,-0.08514404296875,-0.152435302734375,-0.07965087890625,,,38252,15,1,15,0
307,38375,350,-598,-997,-479,0.05340576171875,-0.09124755859375,-0.152130126953125,-0.073089599609375,0.05340576171875,-0.09124755859375,-0.152130126953125,-0.073089599609375,,,38377,15,1,15,0
308,38500,303,-638,-992,-434,0.046234130859375,-0.09735107421875,-0.1513671875,-0.06622314453125,0.046234130859375,-0.09735107421875,-0.1513671875,-0.06622314453125,,,38502,15,1,15,0
309,38625,255,-675,-985,-389,0.038909912109375,-0.102996826171875,-0.150299072265625,-0.059356689453125,0.038909912109375,-0.102996826171875,-0.150299072265625,-0.059356689453125,,,38627,15,1,15,0
310,38750,206,-711,-975,-342,0.03143310546875,-0.108489990234375,-0.148773193359375,-0.05218505859375,0.03143310546875,-0.108489990234375,-0.148773193359375,-0.05218505859375,,,38752,15,1,15,0
311,38875,157,-746,-963,-295,0.023956298828125,-0.11383056640625,-0.146942138671875,-0.045013427734375,0.023956298828125,-0.11383056640625,-0.146942138671875,-0.045013427734375,,,38877,15,1,15,0
312,39000,107,-778,-948,-246,0.016326904296875,-0.11871337890625,-0.1446533203125,-0.03753662109375,0.016326904296875,-0.11871337890625,-0.1446533203125,-0.03753662109375,,,39002,15,1,15,0
313,39125,57,-808,-931,-198,0.008697509765625,-0.123291015625,-0.142059326171875,-0.03021240234375,0.008697509765625,-0.123291015625,-0.142059326171875,-0.03021240234375,,,39127,15,1,15,0
314,39250,7,-837,-912,-148,0.001068115234375,-0.127716064453125,-0.13916015625,-0.0225830078125,0.001068115234375,-0.127716064453125,-0.13916015625,-0.0225830078125,,,39252,15,1,15,0
315,39375,-42,-863,-891,-99,-0.00640869140625,-0.131683349609375,-0.135955810546875,-0.015106201171875,-0.00640869140625,-0.131683349609375,-0.135955810546875,-0.015106201171875,,,39377,15,1,15,0
316,39500,-91,-887,-867,-49,-0.013885498046875,-0.135345458984375,-0.132293701171875,-0.007476806640625,-0.013885498046875,-0.135345458984375,-0.132293701171875,-0.007476806640625,,,39502,15,1,15,0
317,39625,-141,-909,-841,0,-0.021514892578125,-0.138702392578125,-0.128326416015625,0.0,-0.021514892578125,-0.138702392578125,-0.128326416015625,0.0,,,39627,15,1,15,0
318,39750,-190,-929,-813,50,-0.02899169921875,-0.141754150390625,-0.124053955078125,0.00762939453125,-0.02899169921875,-0.141754150390625,-0.124053955078125,0.00762939453125,,,39752,15,1,15,0
319,39875,-239,-946,-783,100,-0.036468505859375,-0.14434814453125,-0.119476318359375,0.0152587890625,-0.036468505859375,-0.14434814453125,-0.119476318359375,0.0152587890625,,,39877,15,1,15,0
320,40000,-287,-961,-750,149,-0.043792724609375,-0.146636962890625,-0.11444091796875,0.022735595703125,-0.043792724609375,-0.146636962890625,-0.11444091796875,0.022735595703125,,,40002,15,1,15,0
321,40125,-335,-973,-717,199,-0.051116943359375,-0.148468017578125,-0.109405517578125,0.030364990234375,-0.051116943359375,-0.148468017578125,-0.109405517578125,0.030364990234375,,,40127,15,1,15,0
322,40250,-382,-984,-681,247,-0.05828857421875,-0.150146484375,-0.103912353515625,0.037689208984375,-0.05828857421875,-0.150146484375,-0.103912353515625,0.037689208984375,,,40252,15,1,15,0
323,40375,-427,-991,-643,295,-0.065155029296875,-0.151214599609375,-0.098114013671875,0.045013427734375,-0.065155029296875,-0.151214599609375,-0.098114013671875,0.045013427734375,,,40377,15,1,15,0
324,40500,-472,-996,-604,343,-0.072021484375,-0.1519775390625,-0.0921630859375,0.052337646484375,-0.072021484375,-0.1519775390625,-0.0921630859375,0.052337646484375,,,40502,15,1,15,0
325,40625,-515,-999,-564,389,-0.078582763671875,-0.152435302734375,-0.0860595703125,0.059356689453125,-0.078582763671875,-0.152435302734375,-0.0860595703125,0.059356689453125,,,40627,15,1,15,0
326,40750,-558,-999,-522,435,-0.08514404296875,-0.152435302734375,-0.07965087890625,0.066375732421875,-0.08514404296875,-0.152435302734375,-0.07965087890625,0.066375732421875,,,40752,15,1,15,0
327,40875,-598,-997,-479,479,-0.09124755859375,-0.152130126953125,-0.073089599609375,0.073089599609375,-0.09124755859375,-0.152130126953125,-0.073089599609375,0.073089599609375,,,40877,15,1,15,0
328,41000,-638,-992,-434,523,-0.09735107421875,-0.1513671875,-0.06622314453125,0.079803466796875,-0.09735107421875,-0.1513671875,-0.06622314453125,0.079803466796875,,,41002,15,1,15,0
329,41125,-675,-985,-389,565,-0.102996826171875,-0.150299072265625,-0.059356689453125,0.086212158203125,-0.102996826171875,-0.150299072265625,-0.059356689453125,0.086212158203125,,,41127,15,1,15,0
330,41250,-711,-975,-342,605,-0.108489990234375,-0.148773193359375,-0.05218505859375,0.092315673828125,-0.108489990234375,-0.148773193359375,-0.05218505859375,0.092315673828125,,,41252,15,1,15,0
331,41375,-746,-963,-295,644,-0.11383056640625,-0.146942138671875,-0.045013427734375,0.0982666015625,-0.11383056640625,-0.146942138671875,-0.045013427734375,0.0982666015625,,,41377,15,1,15,0
332,41500,-778,-948,-246,681,-0.11871337890625,-0.1446533203125,-0.03753662109375,0.103912353515625,-0.11871337890625,-0.1446533203125,-0.03753662109375,0.103912353515625,,,41502,15,1,15,0
333,41625,-808,-931,-198,717,-0.123291015625,-0.142059326171875,-0.03021240234375,0.109405517578125,-0.123291015625,-0.142059326171875,-0.03021240234375,0.109405517578125,,,41627,15,1,15,0
334,41750,-837,-912,-148,751,-0.127716064453125,-0.13916015625,-0.0225830078125,0.114593505859375,-0.127716064453125,-0.13916015625,-0.0225830078125,0.114593505859375,,,41752,15,1,15,0
335,41875,-863,-891,-99,783,-0.131683349609375,-0.135955810546875,-0.015106201171875,0.119476318359375,-0.131683349609375,-0.135955810546875,-0.015106201171875,0.119476318359375,,,41877,15,1,15,0
336,42000,-887,-867,-49,813,-0.135345458984375,-0.132293701171875,-0.007476806640625,0.124053955078125,-0.135345458984375,-0.132293701171875,-0.007476806640625,0.124053955078125,,,42002,15,1,15,0
337,42125,-909,-841,0,841,-0.138702392578125,-0.128326416015625,0.0,0.128326416015625,-0.138702392578125,-0.128326416015625,0.0,0.128326416015625,,,42127,15,1,15,0
338,42250,-929,-813,50,867,-0.141754150390625,-0.124053955078125,0.00762939453125,0.132293701171875,-0.141754150390625,-0.124053955078125,0.00762939453125,0.132293701171875,,,42252,15,1,15,0
339,42375,-946,-783,100,891,-0.14434814453125,-0.119476318359375,0.0152587890625,0.135955810546875,-0.14434814453125,-0.119476318359375,0.0152587890625,0.135955810546875,,,42377,15,1,15,0
340,42500,-961,-750,149,912,-0.146636962890625,-0.11444091796875,0.022735595703125,0.13916015625,-0.146636962890625,-0.11444091796875,0.022735595703125,0.13916015625,,,42502,15,1,15,0
341,42625,-973,-717,199,932,-0.148468017578125,-0.109405517578125,0.030364990234375,0.1422119140625,-0.148468017578125,-0.109405517578125,0.030364990234375,0.1422119140625,,,42627,15,1,15,0
342,42750,-984,-681,247,949,-0.150146484375,-0.103912353515625,0.037689208984375,0.144805908203125,-0.150146484375,-0.103912353515625,0.037689208984375,0.144805908203125,,,42752,15,1,15,0
343,42875,-991,-643,295,963,-0.151214599609375,-0.098114013671875,0.045013427734375,0.146942138671875,-0.151214599609375,-0.098114013671875,0.045013427734375,0.146942138671875,,,42877,15,1,15,0
344,43000,-996,-604,343,975,-0.1519775390625,-0.0921630859375,0.052337646484375,0.148773193359375,-0.1519775390625,-0.0921630859375,0.052337646484375,0.148773193359375,,,43002,15,1,15,0
345,43125,-999,-564,389,985,-0.152435302734375,-0.0860595703125,0.059356689453125,0.150299072265625,-0.152435302734375,-0.0860595703125,0.059356689453125,0.150299072265625,,,43127,15,1,15,0
346,43250,-999,-522,435,992,-0.152435302734375,-0.07965087890625,0.066375732421875,0.1513671875,-0.152435302734375,-0.07965087890625,0.066375732421875,0.1513671875,,,43252,15,1,15,0
347,43375,-997,-479,479,997,-0.152130126953125,-0.073089599609375,0.073089599609375,0.152130126953125,-0.152130126953125,-0.073089599609375,0.073089599609375,0.152130126953125,,,43377,15,1,15,0
348,43500,-992,-434,523,999,-0.1513671875,-0.06622314453125,0.079803466796875,0.152435302734375,-0.1513671875,-0.06622314453125,0.079803466796875,0.152435302734375,,,43502,15,1,15,0
349,43625,-985,-389,565,999,-0.150299072265625,-0.059356689453125,0.086212158203125,0.152435302734375,-0.150299072265625,-0.059356689453125,0.086212158203125,0.152435302734375,,,43627,15,1,15,0
350,43750,-975,-342,605,996,-0.148773193359375,-0.05218505859375,0.092315673828125,0.1519775390625,-0.148773193359375,-0.05218505859375,0.092315673828125,0.1519775390625,,,43752,15,1,15,0
351,43875,-963,-295,644,991,-0.146942138671875,-0.045013427734375,0.0982666015625,0.151214599609375,-0.146942138671875,-0.045013427734375,0.0982666015625,0.151214599609375,,,43877,15,1,15,0
352,44000,-948,-246,681,983,-0.1446533203125,-0.03753662109375,0.103912353515625,0.149993896484375,-0.1446533203125,-0.03753662109375,0.103912353515625,0.149993896484375,,,44002,15,1,15,0
353,44125,-931,-198,717,973,-0.142059326171875,-0.03021240234375,0.109405517578125,0.148468017578125,-0.142059326171875,-0.03021240234375,0.109405517578125,0.148468017578125,,,44127,15,1,15,0
354,44250,-912,-148,751,961,-0.13916015625,-0.0225830078125,0.114593505859375,0.146636962890625,-0.13916015625,-0.0225830078125,0.114593505859375,0.146636962890625,,,44252,15,1,15,0
355,44375,-891,-99,783,946,-0.135955810546875,-0.015106201171875,0.119476318359375,0.14434814453125,-0.135955810546875,-0.015106201171875,0.119476318359375,0.14434814453125,,,44377,15,1,15,0
356,44500,-867,-49,813,928,-0.132293701171875,-0.007476806640625,0.124053955078125,0.1416015625,-0.132293701171875,-0.007476806640625,0.124053955078125,0.1416015625,,,44502,15,1,15,0
357,44625,-841,0,841,909,-0.128326416015625,0.0,0.128326416015625,0.138702392578125,-0.128326416015625,0.0,0.128326416015625,0.138702392578125,,,44627,15,1,15,0
358,44750,-813,50,867,887,-0.124053955078125,0.00762939453125,0.132293701171875,0.135345458984375,-0.124053955078125,0.00762939453125,0.132293701171875,0.135345458984375,,,44752,15,1,15,0
359,44875,-783,100,891,862,-0.119476318359375,0.0152587890625,0.135955810546875,0.13153076171875,-0.119476318359375,0.0152587890625,0.135955810546875,0.13153076171875,,,44877,15,1,15,0
360,45000,-750,149,912,836,-0.11444091796875,0.022735595703125,0.13916015625,0.1275634765625,-0.11444091796875,0.022735595703125,0.13916015625,0.1275634765625,,,45002,15,1,15,0
361,45125,-717,199,932,808,-0.109405517578125,0.030364990234375,0.1422119140625,0.123291015625,-0.109405517578125,0.030364990234375,0.1422119140625,0.123291015625,,,45127,15,1,15,0
362,45250,-681,247,949,777,-0.103912353515625,0.037689208984375,0.144805908203125,0.118560791015625,-0.103912353515625,0.037689208984375,0.144805908203125,0.118560791015625,,,45252,15,1,15,0
363,45375,-643,295,963,745,-0.098114013671875,0.045013427734375,0.146942138671875,0.113677978515625,-0.098114013671875,0.045013427734375,0.146942138671875,0.113677978515625,,,45377,15,1,15,0
364,45500,-604,343,975,711,-0.0921630859375,0.052337646484375,0.148773193359375,0.108489990234375,-0.0921630859375,0.052337646484375,0.148773193359375,0.108489990234375,,,45502,15,1,15,0
365,45625,-564,389,985,675,-0.0860595703125,0.059356689453125,0.150299072265625,0.102996826171875,-0.0860595703125,0.059356689453125,0.150299072265625,0.102996826171875,,,45627,15,1,15,0
366,45750,-522,435,992,637,-0.07965087890625,0.066375732421875,0.1513671875,0.097198486328125,-0.07965087890625,0.066375732421875,0.1513671875,0.097198486328125,,,45752,15,1,15,0
367,45875,-479,479,997,598,-0.073089599609375,0.073089599609375,0.152130126953125,0.09124755859375,-0.073089599609375,0.073089599609375,0.152130126953125,0.09124755859375,,,45877,15,1,15,0
368,46000,-434,523,999,557,-0.06622314453125,0.079803466796875,0.152435302734375,0.084991455078125,-0.06622314453125,0.079803466796875,0.152435302734375,0.084991455078125,,,46002,15,1,15,0
369,46125,-389,565,999,515,-0.059356689453125,0.086212158203125,0.152435302734375,0.078582763671875,-0.059356689453125,0.086212158203125,0.152435302734375,0.078582763671875,,,46127,15,1,15,0
370,46250,-342,605,996,471,-0.05218505859375,0.092315673828125,0.1519775390625,0.071868896484375,-0.05218505859375,0.092315673828125,0.1519775390625,0.071868896484375,,,46252,15,1,15,0
371,46375,-295,644,991,426,-0.045013427734375,0.0982666015625,0.151214599609375,0.06500244140625,-0.045013427734375,0.0982666015625,0.151214599609375,0.06500244140625,,,46377,15,1,15,0
372,46500,-246,681,983,381,-0.03753662109375,0.103912353515625,0.149993896484375,0.058135986328125,-0.03753662109375,0.103912353515625,0.149993896484375,0.058135986328125,,,46502,15,1,15,0
373,46625,-198,717,973,334,-0.03021240234375,0.109405517578125,0.148468017578125,0.05096435546875,-0.03021240234375,0.109405517578125,0.148468017578125,0.05096435546875,,,46627,15,1,15,0
374,46750,-148,751,961,287,-0.0225830078125,0.114593505859375,0.146636962890625,0.043792724609375,-0.0225830078125,0.114593505859375,0.146636962890625,0.043792724609375,,,46752,15,1,15,0
375,46875,-99,783,946,238,-0.015106201171875,0.119476318359375,0.14434814453125,0.03631591796875,-0.015106201171875,0.119476318359375,0.14434814453125,0.03631591796875,,,46877,15,1,15,0
376,47000,-49,813,928,189,-0.007476806640625,0.124053955078125,0.1416015625,0.028839111328125,-0.007476806640625,0.124053955078125,0.1416015625,0.028839111328125,,,47002,15,1,15,0
377,47125,0,841,909,140,0.0,0.128326416015625,0.138702392578125,0.0213623046875,0.0,0.128326416015625,0.138702392578125,0.0213623046875,,,47127,15,1,15,0
378,47250,50,867,887,91,0.00762939453125,0.132293701171875,0.135345458984375,0.013885498046875,0.00762939453125,0.132293701171875,0.135345458984375,0.013885498046875,,,47252,15,1,15,0
379,47375,100,891,862,41,0.0152587890625,0.135955810546875,0.13153076171875,0.006256103515625,0.0152587890625,0.135955810546875,0.13153076171875,0.006256103515625,,,47377,15,1,15,0
380,47500,149,912,836,-8,0.022735595703125,0.13916015625,0.1275634765625,-0.001220703125,0.022735595703125,0.13916015625,0.1275634765625,-0.001220703125,,,47502,15,1,15,0
381,47625,199,932,808,-58,0.030364990234375,0.1422119140625,0.123291015625,-0.00885009765625,0.030364990234375,0.1422119140625,0.123291015625,-0.00885009765625,,,47627,15,1,15,0
382,47750,247,949,777,-108,0.037689208984375,0.144805908203125,0.118560791015625,-0.0164794921875,0.037689208984375,0.144805908203125,0.118560791015625,-0.0164794921875,,,47752,15,1,15,0
383,47875,295,963,745,-158,0.045013427734375,0.146942138671875,0.113677978515625,-0.02410888671875,0.045013427734375,0.146942138671875,0.113677978515625,-0.02410888671875,,,47877,15,1,15,0
384,48000,343,975,711,-207,0.052337646484375,0.148773193359375,0.108489990234375,-0.031585693359375,0.052337646484375,0.148773193359375,0.108489990234375,-0.031585693359375,,,48002,15,1,15,0
385,48125,389,985,675,-255,0.059356689453125,0.150299072265625,0.102996826171875,-0.038909912109375,0.059356689453125,0.150299072265625,0.102996826171875,-0.038909912109375,,,48127,15,1,15,0
386,48250,435,992,637,-303,0.066375732421875,0.1513671875,0.097198486328125,-0.046234130859375,0.066375732421875,0.1513671875,0.097198486328125,-0.046234130859375,,,48252,15,1,15,0
387,48375,479,997,598,-351,0.073089599609375,0.152130126953125,0.09124755859375,-0.053558349609375,0.073089599609375,0.152130126953125,0.09124755859375,-0.053558349609375,,,48377,15,1,15,0
388,48500,523,999,557,-397,0.079803466796875,0.152435302734375,0.084991455078125,-0.060577392578125,0.079803466796875,0.152435302734375,0.084991455078125,-0.060577392578125,,,48502,15,1,15,0
389,48625,565,999,515,-442,0.086212158203125,0.152435302734375,0.078582763671875,-0.06744384765625,0.086212158203125,0.152435302734375,0.078582763671875,-0.06744384765625,,,48627,15,1,15,0
390,48750,605,996,471,-487,0.092315673828125,0.1519775390625,0.071868896484375,-0.074310302734375,0.092315673828125,0.1519775390625,0.071868896484375,-0.074310302734375,,,48752,15,1,15,0
391,48875,644,991,426,-530,0.0982666015625,0.151214599609375,0.06500244140625,-0.08087158203125,0.0982666015625,0.151214599609375,0.06500244140625,-0.08087158203125,,,48877,15,1,15,0
392,49000,681,983,381,-571,0.103912353515625,0.149993896484375,0.058135986328125,-0.087127685546875,0.103912353515625,0.149993896484375,0.058135986328125,-0.087127685546875,,,49002,15,1,15,0
393,49125,717,973,334,-612,0.109405517578125,0.148468017578125,0.05096435546875,-0.0933837890625,0.109405517578125,0.148468017578125,0.05096435546875,-0.0933837890625,,,49127,15,1,15,0
394,49250,751,961,287,-650,0.114593505859375,0.146636962890625,0.043792724609375,-0.09918212890625,0.114593505859375,0.146636962890625,0.043792724609375,-0.09918212890625,,,49252,15,1,15,0
395,49375,783,946,238,-688,0.119476318359375,0.14434814453125,0.03631591796875,-0.10498046875,0.119476318359375,0.14434814453125,0.03631591796875,-0.10498046875,,,49377,15,1,15,0
396,49500,813,928,189,-723,0.124053955078125,0.1416015625,0.028839111328125,-0.110321044921875,0.124053955078125,0.1416015625,0.028839111328125,-0.110321044921875,,,49502,15,1,15,0
397,49625,841,909,140,-757,0.128326416015625,0.138702392578125,0.0213623046875,-0.115509033203125,0.128326416015625,0.138702392578125,0.0213623046875,-0.115509033203125,,,49627,15,1,15,0
398,49750,867,887,91,-788,0.132293701171875,0.135345458984375,0.013885498046875,-0.1202392578125,0.132293701171875,0.135345458984375,0.013885498046875,-0.1202392578125,,,49752,15,1,15,0
399,49875,891,862,41,-818,0.135955810546875,0.13153076171875,0.006256103515625,-0.12481689453125,0.135955810546875,0.13153076171875,0.006256103515625,-0.12481689453125,,,49877,15,1,15,0
400,50000,912,836,-8,-846,0.13916015625,0.1275634765625,-0.001220703125,-0.12908935546875,0.13916015625,0.1275634765625,-0.001220703125,-0.12908935546875,,,50002,15,1,15,0
401,50125,932,808,-58,-871,0.1422119140625,0.123291015625,-0.00885009765625,-0.132904052734375,0.1422119140625,0.123291015625,-0.00885009765625,-0.132904052734375,,,50127,15,1,15,0
402,50250,949,777,-108,-895,0.144805908203125,0.118560791015625,-0.0164794921875,-0.136566162109375,0.144805908203125,0.118560791015625,-0.0164794921875,-0.136566162109375,,,50252,15,1,15,0
403,50375,963,745,-158,-916,0.146942138671875,0.113677978515625,-0.02410888671875,-0.1397705078125,0.146942138671875,0.113677978515625,-0.02410888671875,-0.1397705078125,,,50377,15,1,15,0
404,50500,975,711,-207,-935,0.148773193359375,0.108489990234375,-0.031585693359375,-0.142669677734375,0.148773193359375,0.108489990234375,-0.031585693359375,-0.142669677734375,,,50502,15,1,15,0
405,50625,985,675,-255,-951,0.150299072265625,0.102996826171875,-0.038909912109375,-0.145111083984375,0.150299072265625,0.102996826171875,-0.038909912109375,-0.145111083984375,,,50627,15,1,15,0
406,50750,992,637,-303,-965,0.1513671875,0.097198486328125,-0.046234130859375,-0.147247314453125,0.1513671875,0.097198486328125,-0.046234130859375,-0.147247314453125,,,50752,15,1,15,0
407,50875,997,598,-351,-977,0.152130126953125,0.09124755859375,-0.053558349609375,-0.149078369140625,0.152130126953125,0.09124755859375,-0.053558349609375,-0.149078369140625,,,50877,15,1,15,0
408,51000,999,557,-397,-986,0.152435302734375,0.084991455078125,-0.060577392578125,-0.15045166015625,0.152435302734375,0.084991455078125,-0.060577392578125,-0.15045166015625,,,51002,15,1,15,0
409,51125,999,515,-442,-993,0.152435302734375,0.078582763671875,-0.06744384765625,-0.151519775390625,0.152435302734375,0.078582763671875,-0.06744384765625,-0.151519775390625,,,51127,15,1,15,0
410,51250,996,471,-487,-998,0.1519775390625,0.071868896484375,-0.074310302734375,-0.15228271484375,0.1519775390625,0.071868896484375,-0.074310302734375,-0.15228271484375,,,51252,15,1,15,0
411,51375,991,426,-530,-999,0.151214599609375,0.06500244140625,-0.08087158203125,-0.152435302734375,0.151214599609375,0.06500244140625,-0.08087158203125,-0.152435302734375,,,51377,15,1,15,0
412,51500,983,381,-571,-999,0.149993896484375,0.058135986328125,-0.087127685546875,-0.152435302734375,0.149993896484375,0.058135986328125,-0.087127685546875,-0.152435302734375,,,51502,15,1,15,0
413,51625,973,334,-612,-996,0.148468017578125,0.05096435546875,-0.0933837890625,-0.1519775390625,0.148468017578125,0.05096435546875,-0.0933837890625,-0.1519775390625,,,51627,15,1,15,0
414,51750,961,287,-650,-990,0.146636962890625,0.043792724609375,-0.09918212890625,-0.15106201171875,0.146636962890625,0.043792724609375,-0.09918212890625,-0.15106201171875,,,51752,15,1,15,0
415,51875,946,238,-688,-982,0.14434814453125,0.03631591796875,-0.10498046875,-0.14984130859375,0.14434814453125,0.03631591796875,-0.10498046875,-0.14984130859375,,,51877,15,1,15,0
416,52000,928,189,-723,-971,0.1416015625,0.028839111328125,-0.110321044921875,-0.148162841796875,0.1416015625,0.028839111328125,-0.110321044921875,-0.148162841796875,,,52002,15,1,15,0
417,52125,909,140,-757,-958,0.138702392578125,0.0213623046875,-0.115509033203125,-0.14617919921875,0.138702392578125,0.0213623046875,-0.115509033203125,-0.14617919921875,,,52127,15,1,15,0
418,52250,887,91,-788,-943,0.135345458984375,0.013885498046875,-0.1202392578125,-0.143890380859375,0.135345458984375,0.013885498046875,-0.1202392578125,-0.143890380859375,,,52252,15,1,15,0
419,52375,862,41,-818,-925,0.13153076171875,0.006256103515625,-0.12481689453125,-0.141143798828125,0.13153076171875,0.006256103515625,-0.12481689453125,-0.141143798828125,,,52377,15,1,15,0
420,52500,836,-8,-846,-905,0.1275634765625,-0.001220703125,-0.12908935546875,-0.138092041015625,0.1275634765625,-0.001220703125,-0.12908935546875,-0.138092041015625,,,52502,15,1,15,0
421,52625,808,-58,-871,-883,0.123291015625,-0.00885009765625,-0.132904052734375,-0.134735107421875,0.123291015625,-0.00885009765625,-0.132904052734375,-0.134735107421875,,,52627,15,1,15,0
422,52750,777,-108,-895,-858,0.118560791015625,-0.0164794921875,-0.136566162109375,-0.13092041015625,0.118560791015625,-0.0164794921875,-0.136566162109375,-0.13092041015625,,,52752,15,1,15,0
423,52875,745,-158,-916,-832,0.113677978515625,-0.02410888671875,-0.1397705078125,-0.126953125,0.113677978515625,-0.02410888671875,-0.1397705078125,-0.126953125,,,52877,15,1,15,0
424,53000,711,-207,-935,-803,0.108489990234375,-0.031585693359375,-0.142669677734375,-0.122528076171875,0.108489990234375,-0.031585693359375,-0.142669677734375,-0.122528076171875,,,53002,15,1,15,0
425,53125,675,-255,-951,-772,0.102996826171875,-0.038909912109375,-0.145111083984375,-0.1177978515625,0.102996826171875,-0.038909912109375,-0.145111083984375,-0.1177978515625,,,53127,15,1,15,0
426,53250,637,-303,-965,-739,0.097198486328125,-0.046234130859375,-0.147247314453125,-0.112762451171875,0.097198486328125,-0.046234130859375,-0.147247314453125,-0.112762451171875,,,53252,15,1,15,0
427,53375,598,-351,-977,-705,0.09124755859375,-0.053558349609375,-0.149078369140625,-0.107574462890625,0.09124755859375,-0.053558349609375,-0.149078369140625,-0.107574462890625,,,53377,15,1,15,0
428,53500,557,-397,-986,-668,0.084991455078125,-0.060577392578125,-0.15045166015625,-0.1019287109375,0.084991455078125,-0.060577392578125,-0.15045166015625,-0.1019287109375,,,53502,15,1,15,0
429,53625,515,-442,-993,-630,0.078582763671875,-0.06744384765625,-0.151519775390625,-0.09613037109375,0.078582763671875,-0.06744384765625,-0.151519775390625,-0.09613037109375,,,53627,15,1,15,0
430,53750,471,-487,-998,-591,0.071868896484375,-0.074310302734375,-0.15228271484375,-0.090179443359375,0.071868896484375,-0.074310302734375,-0.15228271484375,-0.090179443359375,,,53752,15,1,15,0
431,53875,426,-530,-999,-550,0.06500244140625,-0.08087158203125,-0.152435302734375,-0.08392333984375,0.06500244140625,-0.08087158203125,-0.152435302734375,-0.08392333984375,,,53877,15,1,15,0
432,54000,381,-571,-999,-507,0.058135986328125,-0.087127685546875,-0.152435302734375,-0.077362060546875,0.058135986328125,-0.087127685546875,-0.152435302734375,-0.077362060546875,,,54002,15,1,15,0
433,54125,334,-612,-996,-464,0.05096435546875,-0.0933837890625,-0.1519775390625,-0.07080078125,0.05096435546875,-0.0933837890625,-0.1519775390625,-0.07080078125,,,54127,15,1,15,0
434,54250,287,-650,-990,-419,0.043792724609375,-0.09918212890625,-0.15106201171875,-0.063934326171875,0.043792724609375,-0.09918212890625,-0.15106201171875,-0.063934326171875,,,54252,15,1,15,0
435,54375,238,-688,-982,-373,0.03631591796875,-0.10498046875,-0.14984130859375,-0.056915283203125,0.03631591796875,-0.10498046875,-0.14984130859375,-0.056915283203125,,,54377,15,1,15,0
436,54500,189,-723,-971,-326,0.028839111328125,-0.110321044921875,-0.148162841796875,-0.04974365234375,0.028839111328125,-0.110321044921875,-0.148162841796875,-0.04974365234375,,,54502,15,1,15,0
437,54625,140,-757,-958,-278,0.0213623046875,-0.115509033203125,-0.14617919921875,-0.04241943359375,0.0213623046875,-0.115509033203125,-0.14617919921875,-0.04241943359375,,,54627,15,1,15,0
438,54750,91,-788,-943,-230,0.013885498046875,-0.1202392578125,-0.143890380859375,-0.03509521484375,0.013885498046875,-0.1202392578125,-0.143890380859375,-0.03509521484375,,,54752,15,1,15,0
439,54875,41,-818,-925,-181,0.006256103515625,-0.12481689453125,-0.141143798828125,-0.027618408203125,0.006256103515625,-0.12481689453125,-0.141143798828125,-0.027618408203125,,,54877,15,1,15,0
440,55000,-8,-846,-905,-132,-0.001220703125,-0.12908935546875,-0.138092041015625,-0.0201416015625,-0.001220703125,-0.12908935546875,-0.138092041015625,-0.0201416015625,,,55002,15,1,15,0
441,55125,-58,-871,-883,-82,-0.00885009765625,-0.132904052734375,-0.134735107421875,-0.01251220703125,-0.00885009765625,-0.132904052734375,-0.134735107421875,-0.01251220703125,,,55127,15,1,15,0
442,55250,-108,-895,-858,-32,-0.0164794921875,-0.136566162109375,-0.13092041015625,-0.0048828125,-0.0164794921875,-0.136566162109375,-0.13092041015625,-0.0048828125,,,55252,15,1,15,0
443,55375,-158,-916,-832,17,-0.02410888671875,-0.1397705078125,-0.126953125,0.002593994140625,-0.02410888671875,-0.1397705078125,-0.126953125,0.002593994140625,,,55377,15,1,15,0
444,55500,-207,-935,-803,67,-0.031585693359375,-0.142669677734375,-0.122528076171875,0.010223388671875,-0.031585693359375,-0.142669677734375,-0.122528076171875,0.010223388671875,,,55502,15,1,15,0
445,55625,-255,-951,-772,116,-0.038909912109375,-0.145111083984375,-0.1177978515625,0.0177001953125,-0.038909912109375,-0.145111083984375,-0.1177978515625,0.0177001953125,,,55627,15,1,15,0
446,55750,-303,-965,-739,166,-0.046234130859375,-0.147247314453125,-0.112762451171875,0.02532958984375,-0.046234130859375,-0.147247314453125,-0.112762451171875,0.02532958984375,,,55752,15,1,15,0
447,55875,-351,-977,-705,215,-0.053558349609375,-0.149078369140625,-0.107574462890625,0.032806396484375,-0.053558349609375,-0.149078369140625,-0.107574462890625,0.032806396484375,,,55877,15,1,15,0
448,56000,-397,-986,-668,264,-0.060577392578125,-0.15045166015625,-0.1019287109375,0.040283203125,-0.060577392578125,-0.15045166015625,-0.1019287109375,0.040283203125,,,56002,15,1,15,0
449,56125,-442,-993,-630,311,-0.06744384765625,-0.151519775390625,-0.09613037109375,0.047454833984375,-0.06744384765625,-0.151519775390625,-0.09613037109375,0.047454833984375,,,56127,15,1,15,0
450,56250,-487,-998,-591,359,-0.074310302734375,-0.15228271484375,-0.090179443359375,0.054779052734375,-0.074310302734375,-0.15228271484375,-0.090179443359375,0.054779052734375,,,56252,15,1,15,0
451,56375,-530,-999,-550,405,-0.08087158203125,-0.152435302734375,-0.08392333984375,0.061798095703125,-0.08087158203125,-0.152435302734375,-0.08392333984375,0.061798095703125,,,56377,15,1,15,0
452,56500,-571,-999,-507,450,-0.087127685546875,-0.152435302734375,-0.077362060546875,0.06866455078125,-0.087127685546875,-0.152435302734375,-0.077362060546875,0.06866455078125,,,56502,15,1,15,0
453,56625,-612,-996,-464,494,-0.0933837890625,-0.1519775390625,-0.07080078125,0.07537841796875,-0.0933837890625,-0.1519775390625,-0.07080078125,0.07537841796875,,,56627,15,1,15,0
454,56750,-650,-990,-419,537,-0.09918212890625,-0.15106201171875,-0.063934326171875,0.081939697265625,-0.09918212890625,-0.15106201171875,-0.063934326171875,0.081939697265625,,,56752,15,1,15,0
455,56875,-688,-982,-373,578,-0.10498046875,-0.14984130859375,-0.056915283203125,0.08819580078125,-0.10498046875,-0.14984130859375,-0.056915283203125,0.08819580078125,,,56877,15,1,15,0
456,57000,-723,-971,-326,618,-0.110321044921875,-0.148162841796875,-0.04974365234375,0.09429931640625,-0.110321044921875,-0.148162841796875,-0.04974365234375,0.09429931640625,,,57002,15,1,15,0
457,57125,-757,-958,-278,657,-0.115509033203125,-0.14617919921875,-0.04241943359375,0.100250244140625,-0.115509033203125,-0.14617919921875,-0.04241943359375,0.100250244140625,,,57127,15,1,15,0
458,57250,-788,-943,-230,694,-0.1202392578125,-0.143890380859375,-0.03509521484375,0.10589599609375,-0.1202392578125,-0.143890380859375,-0.03509521484375,0.10589599609375,,,57252,15,1,15,0
459,57375,-818,-925,-181,729,-0.12481689453125,-0.141143798828125,-0.027618408203125,0.111236572265625,-0.12481689453125,-0.141143798828125,-0.027618408203125,0.111236572265625,,,57377,15,1,15,0
460,57500,-846,-905,-132,762,-0.12908935546875,-0.138092041015625,-0.0201416015625,0.11627197265625,-0.12908935546875,-0.138092041015625,-0.0201416015625,0.11627197265625,,,57502,15,1,15,0
461,57625,-871,-883,-82,793,-0.132904052734375,-0.134735107421875,-0.01251220703125,0.121002197265625,-0.132904052734375,-0.134735107421875,-0.01251220703125,0.121002197265625,,,57627,15,1,15,0
462,57750,-895,-858,-32,823,-0.136566162109375,-0.13092041015625,-0.0048828125,0.125579833984375,-0.136566162109375,-0.13092041015625,-0.0048828125,0.125579833984375,,,57752,15,1,15,0
463,57875,-916,-832,17,850,-0.1397705078125,-0.126953125,0.002593994140625,0.12969970703125,-0.1397705078125,-0.126953125,0.002593994140625,0.12969970703125,,,57877,15,1,15,0
464,58000,-935,-803,67,875,-0.142669677734375,-0.122528076171875,0.010223388671875,0.133514404296875,-0.142669677734375,-0.122528076171875,0.010223388671875,0.133514404296875,,,58002,15,1,15,0
465,58125,-951,-772,116,898,-0.145111083984375,-0.1177978515625,0.0177001953125,0.13702392578125,-0.145111083984375,-0.1177978515625,0.0177001953125,0.13702392578125,,,58127,15,1,15,0
466,58250,-965,-739,166,919,-0.147247314453125,-0.112762451171875,0.02532958984375,0.140228271484375,-0.147247314453125,-0.112762451171875,0.02532958984375,0.140228271484375,,,58252,15,1,15,0
467,58375,-977,-705,215,938,-0.149078369140625,-0.107574462890625,0.032806396484375,0.14312744140625,-0.149078369140625,-0.107574462890625,0.032806396484375,0.14312744140625,,,58377,15,1,15,0
468,58500,-986,-668,264,954,-0.15045166015625,-0.1019287109375,0.040283203125,0.14556884765625,-0.15045166015625,-0.1019287109375,0.040283203125,0.14556884765625,,,58502,15,1,15,0
469,58625,-993,-630,311,968,-0.151519775390625,-0.09613037109375,0.047454833984375,0.147705078125,-0.151519775390625,-0.09613037109375,0.047454833984375,0.147705078125,,,58627,15,1,15,0
470,58750,-998,-591,359,979,-0.15228271484375,-0.090179443359375,0.054779052734375,0.149383544921875,-0.15228271484375,-0.090179443359375,0.054779052734375,0.149383544921875,,,58752,15,1,15,0
471,58875,-999,-550,405,988,-0.152435302734375,-0.08392333984375,0.061798095703125,0.1507568359375,-0.152435302734375,-0.08392333984375,0.061798095703125,0.1507568359375,,,58877,15,1,15,0
472,59000,-999,-507,450,994,-0.152435302734375,-0.077362060546875,0.06866455078125,0.15167236328125,-0.152435302734375,-0.077362060546875,0.06866455078125,0.15167236328125,,,59002,15,1,15,0
473,59125,-996,-464,494,998,-0.1519775390625,-0.07080078125,0.07537841796875,0.15228271484375,-0.1519775390625,-0.07080078125,0.07537841796875,0.15228271484375,,,59127,15,1,15,0
474,59250,-990,-419,537,999,-0.15106201171875,-0.063934326171875,0.081939697265625,0.152435302734375,-0.15106201171875,-0.063934326171875,0.081939697265625,0.152435302734375,,,59252,15,1,15,0
475,59375,-982,-373,578,998,-0.14984130859375,-0.056915283203125,0.08819580078125,0.15228271484375,-0.14984130859375,-0.056915283203125,0.08819580078125,0.15228271484375,,,59377,15,1,15,0
476,59500,-971,-326,618,995,-0.148162841796875,-0.04974365234375,0.09429931640625,0.151824951171875,-0.148162841796875,-0.04974365234375,0.09429931640625,0.151824951171875,,,59502,15,1,15,0
477,59625,-958,-278,657,989,-0.14617919921875,-0.04241943359375,0.100250244140625,0.150909423828125,-0.14617919921875,-0.04241943359375,0.100250244140625,0.150909423828125,,,59627,15,1,15,0
478,59750,-943,-230,694,980,-0.143890380859375,-0.03509521484375,0.10589599609375,0.1495361328125,-0.143890380859375,-0.03509521484375,0.10589599609375,0.1495361328125,,,59752,15,1,15,0
479,59875,-925,-181,729,969,-0.141143798828125,-0.027618408203125,0.111236572265625,0.147857666015625,-0.141143798828125,-0.027618408203125,0.111236572265625,0.147857666015625,,,59877,15,1,15,0
480,60000,-905,-132,762,956,-0.138092041015625,-0.0201416015625,0.11627197265625,0.1458740234375,-0.138092041015625,-0.0201416015625,0.11627197265625,0.1458740234375,,,60002,15,1,15,0
481,60125,-883,-82,793,940,-0.134735107421875,-0.01251220703125,0.121002197265625,0.1434326171875,-0.134735107421875,-0.01251220703125,0.121002197265625,0.1434326171875,,,60127,15,1,15,0
482,60250,-858,-32,823,922,-0.13092041015625,-0.0048828125,0.125579833984375,0.14068603515625,-0.13092041015625,-0.0048828125,0.125579833984375,0.14068603515625,,,60252,15,1,15,0
483,60375,-832,17,850,901,-0.126953125,0.002593994140625,0.12969970703125,0.137481689453125,-0.126953125,0.002593994140625,0.12969970703125,0.137481689453125,,,60377,15,1,15,0
484,60500,-803,67,875,879,-0.122528076171875,0.010223388671875,0.133514404296875,0.134124755859375,-0.122528076171875,0.010223388671875,0.133514404296875,0.134124755859375,,,60502,15,1,15,0
485,60625,-772,116,898,854,-0.1177978515625,0.0177001953125,0.13702392578125,0.13031005859375,-0.1177978515625,0.0177001953125,0.13702392578125,0.13031005859375,,,60627,15,1,15,0
486,60750,-739,166,919,827,-0.112762451171875,0.02532958984375,0.140228271484375,0.126190185546875,-0.112762451171875,0.02532958984375,0.140228271484375,0.126190185546875,,,60752,15,1,15,0
487,60875,-705,215,938,798,-0.107574462890625,0.032806396484375,0.14312744140625,0.12176513671875,-0.107574462890625,0.032806396484375,0.14312744140625,0.12176513671875,,,60877,15,1,15,0
488,61000,-668,264,954,767,-0.1019287109375,0.040283203125,0.14556884765625,0.117034912109375,-0.1019287109375,0.040283203125,0.14556884765625,0.117034912109375,,,61002,15,1,15,0
489,61125,-630,311,968,734,-0.09613037109375,0.047454833984375,0.147705078125,0.11199951171875,-0.09613037109375,0.047454833984375,0.147705078125,0.11199951171875,,,61127,15,1,15,0
490,61250,-591,359,979,699,-0.090179443359375,0.054779052734375,0.149383544921875,0.106658935546875,-0.090179443359375,0.054779052734375,0.149383544921875,0.106658935546875,,,61252,15,1,15,0
491,61375,-550,405,988,662,-0.08392333984375,0.061798095703125,0.1507568359375,0.10101318359375,-0.08392333984375,0.061798095703125,0.1507568359375,0.10101318359375,,,61377,15,1,15,0
492,61500,-507,450,994,624,-0.077362060546875,0.06866455078125,0.15167236328125,0.09521484375,-0.077362060546875,0.06866455078125,0.15167236328125,0.09521484375,,,61502,15,1,15,0
493,61625,-464,494,998,584,-0.07080078125,0.07537841796875,0.15228271484375,0.089111328125,-0.07080078125,0.07537841796875,0.15228271484375,0.089111328125,,,61627,15,1,15,0
494,61750,-419,537,999,543,-0.063934326171875,0.081939697265625,0.152435302734375,0.082855224609375,-0.063934326171875,0.081939697265625,0.152435302734375,0.082855224609375,,,61752,15,1,15,0
495,61875,-373,578,998,500,-0.056915283203125,0.08819580078125,0.15228271484375,0.0762939453125,-0.056915283203125,0.08819580078125,0.15228271484375,0.0762939453125,,,61877,15,1,15,0
496,62000,-326,618,995,456,-0.04974365234375,0.09429931640625,0.151824951171875,0.069580078125,-0.04974365234375,0.09429931640625,0.151824951171875,0.069580078125,,,62002,15,1,15,0
497,62125,-278,657,989,411,-0.04241943359375,0.100250244140625,0.150909423828125,0.062713623046875,-0.04241943359375,0.100250244140625,0.150909423828125,0.062713623046875,,,62127,15,1,15,0
498,62250,-230,694,980,365,-0.03509521484375,0.10589599609375,0.1495361328125,0.055694580078125,-0.03509521484375,0.10589599609375,0.1495361328125,0.055694580078125,,,62252,15,1,15,0
499,62375,-181,729,969,318,-0.027618408203125,0.111236572265625,0.147857666015625,0.04852294921875,-0.027618408203125,0.111236572265625,0.147857666015625,0.04852294921875,,,62377,15,1,15,0
500,62500,-132,762,956,270,-0.0201416015625,0.11627197265625,0.1458740234375,0.04119873046875,-0.0201416015625,0.11627197265625,0.1458740234375,0.04119873046875,,,62502,15,1,15,0
501,62625,-82,793,940,222,-0.01251220703125,0.121002197265625,0.1434326171875,0.03387451171875,-0.01251220703125,0.121002197265625,0.1434326171875,0.03387451171875,,,62627,15,1,15,0
502,62750,-32,823,922,173,-0.0048828125,0.125579833984375,0.14068603515625,0.026397705078125,-0.0048828125,0.125579833984375,0.14068603515625,0.026397705078125,,,62752,15,1,15,0
503,62875,17,850,901,124,0.002593994140625,0.12969970703125,0.137481689453125,0.0189208984375,0.002593994140625,0.12969970703125,0.137481689453125,0.0189208984375,,,62877,15,1,15,0
504,63000,67,875,879,74,0.010223388671875,0.133514404296875,0.134124755859375,0.01129150390625,0.010223388671875,0.133514404296875,0.134124755859375,0.01129150390625,,,63002,15,1,15,0
505,63125,116,898,854,24,0.0177001953125,0.13702392578125,0.13031005859375,0.003662109375,0.0177001953125,0.13702392578125,0.13031005859375,0.003662109375,,,63127,15,1,15,0
506,63250,166,919,827,-25,0.02532958984375,0.140228271484375,0.126190185546875,-0.003814697265625,0.02532958984375,0.140228271484375,0.126190185546875,-0.003814697265625,,,63252,15,1,15,0
507,63375,215,938,798,-75,0.032806396484375,0.14312744140625,0.12176513671875,-0.011444091796875,0.032806396484375,0.14312744140625,0.12176513671875,-0.011444091796875,,,63377,15,1,15,0
508,63500,264,954,767,-125,0.040283203125,0.14556884765625,0.117034912109375,-0.019073486328125,0.040283203125,0.14556884765625,0.117034912109375,-0.019073486328125,,,63502,15,1,15,0
509,63625,311,968,734,-174,0.047454833984375,0.147705078125,0.11199951171875,-0.02655029296875,0.047454833984375,0.147705078125,0.11199951171875,-0.02655029296875,,,63627,15,1,15,0
510,63750,359,979,699,-223,0.054779052734375,0.149383544921875,0.106658935546875,-0.034027099609375,0.054779052734375,0.149383544921875,0.106658935546875,-0.034027099609375,,,63752,15,1,15,0
511,63875,405,988,662,-272,0.061798095703125,0.1507568359375,0.10101318359375,-0.04150390625,0.061798095703125,0.1507568359375,0.10101318359375,-0.04150390625,,,63877,15,1,15,0
512,64000,450,994,624,-319,0.06866455078125,0.15167236328125,0.09521484375,-0.048675537109375,0.06866455078125,0.15167236328125,0.09521484375,-0.048675537109375,,,64002,15,1,15,0
513,64125,494,998,584,-366,0.07537841796875,0.15228271484375,0.089111328125,-0.05584716796875,0.07537841796875,0.15228271484375,0.089111328125,-0.05584716796875,,,64127,15,1,15,0
514,64250,537,999,543,-412,0.081939697265625,0.152435302734375,0.082855224609375,-0.0628662109375,0.081939697265625,0.152435302734375,0.082855224609375,-0.0628662109375,,,64252,15,1,15,0
515,64375,578,998,500,-457,0.08819580078125,0.15228271484375,0.0762939453125,-0.069732666015625,0.08819580078125,0.15228271484375,0.0762939453125,-0.069732666015625,,,64377,15,1,15,0
516,64500,618,995,456,-501,0.09429931640625,0.151824951171875,0.069580078125,-0.076446533203125,0.09429931640625,0.151824951171875,0.069580078125,-0.076446533203125,,,64502,15,1,15,0
517,64625,657,989,411,-544,0.100250244140625,0.150909423828125,0.062713623046875,-0.0830078125,0.100250244140625,0.150909423828125,0.062713623046875,-0.0830078125,,,64627,15,1,15,0
518,64750,694,980,365,-585,0.10589599609375,0.1495361328125,0.055694580078125,-0.089263916015625,0.10589599609375,0.1495361328125,0.055694580078125,-0.089263916015625,,,64752,15,1,15,0
519,64875,729,969,318,-625,0.111236572265625,0.147857666015625,0.04852294921875,-0.095367431640625,0.111236572265625,0.147857666015625,0.04852294921875,-0.095367431640625,,,64877,15,1,15,0
520,65000,762,956,270,-663,0.11627197265625,0.1458740234375,0.04119873046875,-0.101165771484375,0.11627197265625,0.1458740234375,0.04119873046875,-0.101165771484375,,,65002,15,1,15,0
521,65125,793,940,222,-700,0.121002197265625,0.1434326171875,0.03387451171875,-0.1068115234375,0.121002197265625,0.1434326171875,0.03387451171875,-0.1068115234375,,,65127,15,1,15,0
522,65250,823,922,173,-734,0.125579833984375,0.14068603515625,0.026397705078125,-0.11199951171875,0.125579833984375,0.14068603515625,0.026397705078125,-0.11199951171875,,,65252,15,1,15,0
523,65375,850,901,124,-767,0.12969970703125,0.137481689453125,0.0189208984375,-0.117034912109375,0.12969970703125,0.137481689453125,0.0189208984375,-0.117034912109375,,,65377,15,1,15,0
524,65500,875,879,74,-799,0.133514404296875,0.134124755859375,0.01129150390625,-0.121917724609375,0.133514404296875,0.134124755859375,0.01129150390625,-0.121917724609375,,,65502,15,1,15,0
525,65625,898,854,24,-828,0.13702392578125,0.13031005859375,0.003662109375,-0.1263427734375,0.13702392578125,0.13031005859375,0.003662109375,-0.1263427734375,,,65627,15,1,15,0
526,65750,919,827,-25,-855,0.140228271484375,0.126190185546875,-0.003814697265625,-0.130462646484375,0.140228271484375,0.126190185546875,-0.003814697265625,-0.130462646484375,,,65752,15,1,15,0
527,65875,938,798,-75,-879,0.14312744140625,0.12176513671875,-0.011444091796875,-0.134124755859375,0.14312744140625,0.12176513671875,-0.011444091796875,-0.134124755859375,,,65877,15,1,15,0
528,66000,954,767,-125,-902,0.14556884765625,0.117034912109375,-0.019073486328125,-0.13763427734375,0.14556884765625,0.117034912109375,-0.019073486328125,-0.13763427734375,,,66002,15,1,15,0
529,66125,968,734,-174,-922,0.147705078125,0.11199951171875,-0.02655029296875,-0.14068603515625,0.147705078125,0.11199951171875,-0.02655029296875,-0.14068603515625,,,66127,15,1,15,0
530,66250,979,699,-223,-941,0.149383544921875,0.106658935546875,-0.034027099609375,-0.143585205078125,0.149383544921875,0.106658935546875,-0.034027099609375,-0.143585205078125,,,66252,15,1,15,0
531,66375,988,662,-272,-956,0.1507568359375,0.10101318359375,-0.04150390625,-0.1458740234375,0.1507568359375,0.10101318359375,-0.04150390625,-0.1458740234375,,,66377,15,1,15,0
532,66500,994,624,-319,-970,0.15167236328125,0.09521484375,-0.048675537109375,-0.14801025390625,0.15167236328125,0.09521484375,-0.048675537109375,-0.14801025390625,,,66502,15,1,15,0
533,66625,998,584,-366,-981,0.15228271484375,0.089111328125,-0.05584716796875,-0.149688720703125,0.15228271484375,0.089111328125,-0.05584716796875,-0.149688720703125,,,66627,15,1,15,0
534,66750,999,543,-412,-989,0.152435302734375,0.082855224609375,-0.0628662109375,-0.150909423828125,0.152435302734375,0.082855224609375,-0.0628662109375,-0.150909423828125,,,66752,15,1,15,0
535,66875,998,500,-457,-995,0.15228271484375,0.0762939453125,-0.069732666015625,-0.151824951171875,0.15228271484375,0.0762939453125,-0.069732666015625,-0.151824951171875,,,66877,15,1,15,0
536,67000,995,456,-501,-998,0.151824951171875,0.069580078125,-0.076446533203125,-0.15228271484375,0.151824951171875,0.069580078125,-0.076446533203125,-0.15228271484375,,,67002,15,1,15,0
537,67125,989,411,-544,-999,0.150909423828125,0.062713623046875,-0.0830078125,-0.152435302734375,0.150909423828125,0.062713623046875,-0.0830078125,-0.152435302734375,,,67127,15,1,15,0
538,67250,980,365,-585,-998,0.1495361328125,0.055694580078125,-0.089263916015625,-0.15228271484375,0.1495361328125,0.055694580078125,-0.089263916015625,-0.15228271484375,,,67252,15,1,15,0
539,67375,969,318,-625,-994,0.147857666015625,0.04852294921875,-0.095367431640625,-0.15167236328125,0.147857666015625,0.04852294921875,-0.095367431640625,-0.15167236328125,,,67377,15,1,15,0
540,67500,956,270,-663,-988,0.1458740234375,0.04119873046875,-0.101165771484375,-0.1507568359375,0.1458740234375,0.04119873046875,-0.101165771484375,-0.1507568359375,,,67502,15,1,15,0
541,67625,940,222,-700,-979,0.1434326171875,0.03387451171875,-0.1068115234375,-0.149383544921875,0.1434326171875,0.03387451171875,-0.1068115234375,-0.149383544921875,,,67627,15,1,15,0
542,67750,922,173,-734,-967,0.14068603515625,0.026397705078125,-0.11199951171875,-0.147552490234375,0.14068603515625,0.026397705078125,-0.11199951171875,-0.147552490234375,,,67752,15,1,15,0
543,67875,901,124,-767,-953,0.137481689453125,0.0189208984375,-0.117034912109375,-0.145416259765625,0.137481689453125,0.0189208984375,-0.117034912109375,-0.145416259765625,,,67877,15,1,15,0
544,68000,879,74,-799,-937,0.134124755859375,0.01129150390625,-0.121917724609375,-0.142974853515625,0.134124755859375,0.01129150390625,-0.121917724609375,-0.142974853515625,,,68002,15,1,15,0
545,68125,854,24,-828,-919,0.13031005859375,0.003662109375,-0.1263427734375,-0.140228271484375,0.13031005859375,0.003662109375,-0.1263427734375,-0.140228271484375,,,68127,15,1,15,0
546,68250,827,-25,-855,-898,0.126190185546875,-0.003814697265625,-0.130462646484375,-0.13702392578125,0.126190185546875,-0.003814697265625,-0.130462646484375,-0.13702392578125,,,68252,15,1,15,0
547,68375,798,-75,-879,-875,0.12176513671875,-0.011444091796875,-0.134124755859375,-0.133514404296875,0.12176513671875,-0.011444091796875,-0.134124755859375,-0.133514404296875,,,68377,15,1,15,0
548,68500,767,-125,-902,-849,0.117034912109375,-0.019073486328125,-0.13763427734375,-0.129547119140625,0.117034912109375,-0.019073486328125,-0.13763427734375,-0.129547119140625,,,68502,15,1,15,0
549,68625,734,-174,-922,-822,0.11199951171875,-0.02655029296875,-0.14068603515625,-0.12542724609375,0.11199951171875,-0.02655029296875,-0.14068603515625,-0.12542724609375,,,68627,15,1,15,0
550,68750,699,-223,-941,-793,0.106658935546875,-0.034027099609375,-0.143585205078125,-0.121002197265625,0.106658935546875,-0.034027099609375,-0.143585205078125,-0.121002197265625,,,68752,15,1,15,0
551,68875,662,-272,-956,-761,0.10101318359375,-0.04150390625,-0.1458740234375,-0.116119384765625,0.10101318359375,-0.04150390625,-0.1458740234375,-0.116119384765625,,,68877,15,1,15,0
552,69000,624,-319,-970,-728,0.09521484375,-0.048675537109375,-0.14801025390625,-0.111083984375,0.09521484375,-0.048675537109375,-0.14801025390625,-0.111083984375,,,69002,15,1,15,0
553,69125,584,-366,-981,-693,0.089111328125,-0.05584716796875,-0.149688720703125,-0.105743408203125,0.089111328125,-0.05584716796875,-0.149688720703125,-0.105743408203125,,,69127,15,1,15,0
554,69250,543,-412,-989,-656,0.082855224609375,-0.0628662109375,-0.150909423828125,-0.10009765625,0.082855224609375,-0.0628662109375,-0.150909423828125,-0.10009765625,,,69252,15,1,15,0
555,69375,500,-457,-995,-617,0.0762939453125,-0.069732666015625,-0.151824951171875,-0.094146728515625,0.0762939453125,-0.069732666015625,-0.151824951171875,-0.094146728515625,,,69377,15,1,15,0
556,69500,456,-501,-998,-577,0.069580078125,-0.076446533203125,-0.15228271484375,-0.088043212890625,0.069580078125,-0.076446533203125,-0.15228271484375,-0.088043212890625,,,69502,15,1,15,0
557,69625,411,-544,-999,-536,0.062713623046875,-0.0830078125,-0.152435302734375,-0.081787109375,0.062713623046875,-0.0830078125,-0.152435302734375,-0.081787109375,,,69627,15,1,15,0
558,69750,365,-585,-998,-493,0.055694580078125,-0.089263916015625,-0.15228271484375,-0.075225830078125,0.055694580078125,-0.089263916015625,-0.15228271484375,-0.075225830078125,,,69752,15,1,15,0
559,69875,318,-625,-994,-449,0.04852294921875,-0.095367431640625,-0.15167236328125,-0.068511962890625,0.04852294921875,-0.095367431640625,-0.15167236328125,-0.068511962890625,,,69877,15,1,15,0
560,70000,270,-663,-988,-404,0.04119873046875,-0.101165771484375,-0.1507568359375,-0.0616455078125,0.04119873046875,-0.101165771484375,-0.1507568359375,-0.0616455078125,,,70002,15,1,15,0
561,70125,222,-700,-979,-357,0.03387451171875,-0.1068115234375,-0.149383544921875,-0.054473876953125,0.03387451171875,-0.1068115234375,-0.149383544921875,-0.054473876953125,,,70127,15,1,15,0
562,70250,173,-734,-967,-310,0.026397705078125,-0.11199951171875,-0.147552490234375,-0.04730224609375,0.026397705078125,-0.11199951171875,-0.147552490234375,-0.04730224609375,,,70252,15,1,15,0
563,70375,124,-767,-953,-262,0.0189208984375,-0.117034912109375,-0.145416259765625,-0.03997802734375,0.0189208984375,-0.117034912109375,-0.145416259765625,-0.03997802734375,,,70377,15,1,15,0
564,70500,74,-799,-937,-214,0.01129150390625,-0.121917724609375,-0.142974853515625,-0.03265380859375,0.01129150390625,-0.121917724609375,-0.142974853515625,-0.03265380859375,,,70502,15,1,15,0
565,70625,24,-828,-919,-165,0.003662109375,-0.1263427734375,-0.140228271484375,-0.025177001953125,0.003662109375,-0.1263427734375,-0.140228271484375,-0.025177001953125,,,70627,15,1,15,0
566,70750,-25,-855,-898,-115,-0.003814697265625,-0.130462646484375,-0.13702392578125,-0.017547607421875,-0.003814697265625,-0.130462646484375,-0.13702392578125,-0.017547607421875,,,70752,15,1,15,0
567,70875,-75,-879,-875,-65,-0.011444091796875,-0.134124755859375,-0.133514404296875,-0.009918212890625,-0.011444091796875,-0.134124755859375,-0.133514404296875,-0.009918212890625,,,70877,15,1,15,0
568,71000,-125,-902,-849,-15,-0.019073486328125,-0.13763427734375,-0.129547119140625,-0.002288818359375,-0.019073486328125,-0.13763427734375,-0.129547119140625,-0.002288818359375,,,71002,15,1,15,0
569,71125,-174,-922,-822,34,-0.02655029296875,-0.14068603515625,-0.12542724609375,0.00518798828125,-0.02655029296875,-0.14068603515625,-0.12542724609375,0.00518798828125,,,71127,15,1,15,0
570,71250,-223,-941,-793,83,-0.034027099609375,-0.143585205078125,-0.121002197265625,0.012664794921875,-0.034027099609375,-0.143585205078125,-0.121002197265625,0.012664794921875,,,71252,15,1,15,0
571,71375,-272,-956,-761,133,-0.04150390625,-0.1458740234375,-0.116119384765625,0.020294189453125,-0.04150390625,-0.1458740234375,-0.116119384765625,0.020294189453125,,,71377,15,1,15,0
572,71500,-319,-970,-728,183,-0.048675537109375,-0.14801025390625,-0.111083984375,0.027923583984375,-0.048675537109375,-0.14801025390625,-0.111083984375,0.027923583984375,,,71502,15,1,15,0
573,71625,-366,-981,-693,231,-0.05584716796875,-0.149688720703125,-0.105743408203125,0.035247802734375,-0.05584716796875,-0.149688720703125,-0.105743408203125,0.035247802734375,,,71627,15,1,15,0
574,71750,-412,-989,-656,280,-0.0628662109375,-0.150909423828125,-0.10009765625,0.042724609375,-0.0628662109375,-0.150909423828125,-0.10009765625,0.042724609375,,,71752,15,1,15,0
575,71875,-457,-995,-617,327,-0.069732666015625,-0.151824951171875,-0.094146728515625,0.049896240234375,-0.069732666015625,-0.151824951171875,-0.094146728515625,0.049896240234375,,,71877,15,1,15,0
576,72000,-501,-998,-577,374,-0.076446533203125,-0.15228271484375,-0.088043212890625,0.05706787109375,-0.076446533203125,-0.15228271484375,-0.088043212890625,0.05706787109375,,,72002,15,1,15,0
577,72125,-544,-999,-536,420,-0.0830078125,-0.152435302734375,-0.081787109375,0.0640869140625,-0.0830078125,-0.152435302734375,-0.081787109375,0.0640869140625,,,72127,15,1,15,0
578,72250,-585,-998,-493,465,-0.089263916015625,-0.15228271484375,-0.075225830078125,0.070953369140625,-0.089263916015625,-0.15228271484375,-0.075225830078125,0.070953369140625,,,72252,15,1,15,0
579,72375,-625,-994,-449,509,-0.095367431640625,-0.15167236328125,-0.068511962890625,0.077667236328125,-0.095367431640625,-0.15167236328125,-0.068511962890625,0.077667236328125,,,72377,15,1,15,0
580,72500,-663,-988,-404,551,-0.101165771484375,-0.1507568359375,-0.0616455078125,0.084075927734375,-0.101165771484375,-0.1507568359375,-0.0616455078125,0.084075927734375,,,72502,15,1,15,0
581,72625,-700,-979,-357,592,-0.1068115234375,-0.149383544921875,-0.054473876953125,0.09033203125,-0.1068115234375,-0.149383544921875,-0.054473876953125,0.09033203125,,,72627,15,1,15,0
582,72750,-734,-967,-310,631,-0.11199951171875,-0.147552490234375,-0.04730224609375,0.096282958984375,-0.11199951171875,-0.147552490234375,-0.04730224609375,0.096282958984375,,,72752,15,1,15,0
583,72875,-767,-953,-262,669,-0.117034912109375,-0.145416259765625,-0.03997802734375,0.102081298828125,-0.117034912109375,-0.145416259765625,-0.03997802734375,0.102081298828125,,,72877,15,1,15,0
584,73000,-799,-937,-214,706,-0.121917724609375,-0.142974853515625,-0.03265380859375,0.10772705078125,-0.121917724609375,-0.142974853515625,-0.03265380859375,0.10772705078125,,,73002,15,1,15,0
585,73125,-828,-919,-165,740,-0.1263427734375,-0.140228271484375,-0.025177001953125,0.1129150390625,-0.1263427734375,-0.140228271484375,-0.025177001953125,0.1129150390625,,,73127,15,1,15,0
586,73250,-855,-898,-115,773,-0.130462646484375,-0.13702392578125,-0.017547607421875,0.117950439453125,-0.130462646484375,-0.13702392578125,-0.017547607421875,0.117950439453125,,,73252,15,1,15,0
587,73375,-879,-875,-65,804,-0.134124755859375,-0.133514404296875,-0.009918212890625,0.1226806640625,-0.134124755859375,-0.133514404296875,-0.009918212890625,0.1226806640625,,,73377,15,1,15,0
588,73500,-902,-849,-15,832,-0.13763427734375,-0.129547119140625,-0.002288818359375,0.126953125,-0.13763427734375,-0.129547119140625,-0.002288818359375,0.126953125,,,73502,15,1,15,0
589,73625,-922,-822,34,859,-0.14068603515625,-0.12542724609375,0.00518798828125,0.131072998046875,-0.14068603515625,-0.12542724609375,0.00518798828125,0.131072998046875,,,73627,15,1,15,0
590,73750,-941,-793,83,883,-0.143585205078125,-0.121002197265625,0.012664794921875,0.134735107421875,-0.143585205078125,-0.121002197265625,0.012664794921875,0.134735107421875,,,73752,15,1,15,0
591,73875,-956,-761,133,906,-0.1458740234375,-0.116119384765625,0.020294189453125,0.13824462890625,-0.1458740234375,-0.116119384765625,0.020294189453125,0.13824462890625,,,73877,15,1,15,0
592,74000,-970,-728,183,926,-0.14801025390625,-0.111083984375,0.027923583984375,0.14129638671875,-0.14801025390625,-0.111083984375,0.027923583984375,0.14129638671875,,,74002,15,1,15,0
593,74125,-981,-693,231,943,-0.149688720703125,-0.105743408203125,0.035247802734375,0.143890380859375,-0.149688720703125,-0.105743408203125,0.035247802734375,0.143890380859375,,,74127,15,1,15,0
594,74250,-989,-656,280,959,-0.150909423828125,-0.10009765625,0.042724609375,0.146331787109375,-0.150909423828125,-0.10009765625,0.042724609375,0.146331787109375,,,74252,15,1,15,0
595,74375,-995,-617,327,972,-0.151824951171875,-0.094146728515625,0.049896240234375,0.1483154296875,-0.151824951171875,-0.094146728515625,0.049896240234375,0.1483154296875,,,74377,15,1,15,0
596,74500,-998,-577,374,982,-0.15228271484375,-0.088043212890625,0.05706787109375,0.14984130859375,-0.15228271484375,-0.088043212890625,0.05706787109375,0.14984130859375,,,74502,15,1,15,0
597,74625,-999,-536,420,990,-0.152435302734375,-0.081787109375,0.0640869140625,0.15106201171875,-0.152435302734375,-0.081787109375,0.0640869140625,0.15106201171875,,,74627,15,1,15,0
598,74750,-998,-493,465,996,-0.15228271484375,-0.075225830078125,0.070953369140625,0.1519775390625,-0.15228271484375,-0.075225830078125,0.070953369140625,0.1519775390625,,,74752,15,1,15,0
599,74875,-994,-449,509,999,-0.15167236328125,-0.068511962890625,0.077667236328125,0.152435302734375,-0.15167236328125,-0.068511962890625,0.077667236328125,0.152435302734375,,,74877,15,1,15,0
600,75000,-988,-404,551,999,-0.1507568359375,-0.0616455078125,0.084075927734375,0.152435302734375,-0.1507568359375,-0.0616455078125,0.084075927734375,0.152435302734375,,,75002,15,1,15,0
601,75125,-979,-357,592,997,-0.149383544921875,-0.054473876953125,0.09033203125,0.152130126953125,-0.149383544921875,-0.054473876953125,0.09033203125,0.152130126953125,,,75127,15,1,15,0
602,75250,-967,-310,631,993,-0.147552490234375,-0.04730224609375,0.096282958984375,0.151519775390625,-0.147552490234375,-0.04730224609375,0.096282958984375,0.151519775390625,,,75252,15,1,15,0
603,75375,-953,-262,669,986,-0.145416259765625,-0.03997802734375,0.102081298828125,0.15045166015625,-0.145416259765625,-0.03997802734375,0.102081298828125,0.15045166015625,,,75377,15,1,15,0
604,75500,-937,-214,706,977,-0.142974853515625,-0.03265380859375,0.10772705078125,0.149078369140625,-0.142974853515625,-0.03265380859375,0.10772705078125,0.149078369140625,,,75502,15,1,15,0
605,75625,-919,-165,740,965,-0.140228271484375,-0.025177001953125,0.1129150390625,0.147247314453125,-0.140228271484375,-0.025177001953125,0.1129150390625,0.147247314453125,,,75627,15,1,15,0
606,75750,-898,-115,773,951,-0.13702392578125,-0.017547607421875,0.117950439453125,0.145111083984375,-0.13702392578125,-0.017547607421875,0.117950439453125,0.145111083984375,,,75752,15,1,15,0
607,75875,-875,-65,804,934,-0.133514404296875,-0.009918212890625,0.1226806640625,0.14251708984375,-0.133514404296875,-0.009918212890625,0.1226806640625,0.14251708984375,,,75877,15,1,15,0
608,76000,-849,-15,832,915,-0.129547119140625,-0.002288818359375,0.126953125,0.139617919921875,-0.129547119140625,-0.002288818359375,0.126953125,0.139617919921875,,,76002,15,1,15,0
609,76125,-822,34,859,894,-0.12542724609375,0.00518798828125,0.131072998046875,0.13641357421875,-0.12542724609375,0.00518798828125,0.131072998046875,0.13641357421875,,,76127,15,1,15,0
610,76250,-793,83,883,871,-0.121002197265625,0.012664794921875,0.134735107421875,0.132904052734375,-0.121002197265625,0.012664794921875,0.134735107421875,0.132904052734375,,,76252,15,1,15,0
611,76375,-761,133,906,845,-0.116119384765625,0.020294189453125,0.13824462890625,0.128936767578125,-0.116119384765625,0.020294189453125,0.13824462890625,0.128936767578125,,,76377,15,1,15,0
612,76500,-728,183,926,817,-0.111083984375,0.027923583984375,0.14129638671875,0.124664306640625,-0.111083984375,0.027923583984375,0.14129638671875,0.124664306640625,,,76502,15,1,15,0
613,76625,-693,231,943,787,-0.105743408203125,0.035247802734375,0.143890380859375,0.120086669921875,-0.105743408203125,0.035247802734375,0.143890380859375,0.120086669921875,,,76627,15,1,15,0
614,76750,-656,280,959,756,-0.10009765625,0.042724609375,0.146331787109375,0.1153564453125,-0.10009765625,0.042724609375,0.146331787109375,0.1153564453125,,,76752,15,1,15,0
615,76875,-617,327,972,722,-0.094146728515625,0.049896240234375,0.1483154296875,0.11016845703125,-0.094146728515625,0.049896240234375,0.1483154296875,0.11016845703125,,,76877,15,1,15,0
616,77000,-577,374,982,687,-0.088043212890625,0.05706787109375,0.14984130859375,0.104827880859375,-0.088043212890625,0.05706787109375,0.14984130859375,0.104827880859375,,,77002,15,1,15,0
617,77125,-536,420,990,649,-0.081787109375,0.0640869140625,0.15106201171875,0.099029541015625,-0.081787109375,0.0640869140625,0.15106201171875,0.099029541015625,,,77127,15,1,15,0
618,77250,-493,465,996,611,-0.075225830078125,0.070953369140625,0.1519775390625,0.093231201171875,-0.075225830078125,0.070953369140625,0.1519775390625,0.093231201171875,,,77252,15,1,15,0
619,77375,-449,509,999,570,-0.068511962890625,0.077667236328125,0.152435302734375,0.08697509765625,-0.068511962890625,0.077667236328125,0.152435302734375,0.08697509765625,,,77377,15,1,15,0
620,77500,-404,551,999,529,-0.0616455078125,0.084075927734375,0.152435302734375,0.080718994140625,-0.0616455078125,0.084075927734375,0.152435302734375,0.080718994140625,,,77502,15,1,15,0
621,77625,-357,592,997,486,-0.054473876953125,0.09033203125,0.152130126953125,0.07415771484375,-0.054473876953125,0.09033203125,0.152130126953125,0.07415771484375,,,77627,15,1,15,0
622,77750,-310,631,993,441,-0.04730224609375,0.096282958984375,0.151519775390625,0.067291259765625,-0.04730224609375,0.096282958984375,0.151519775390625,0.067291259765625,,,77752,15,1,15,0
623,77875,-262,669,986,396,-0.03997802734375,0.102081298828125,0.15045166015625,0.0604248046875,-0.03997802734375,0.102081298828125,0.15045166015625,0.0604248046875,,,77877,15,1,15,0
624,78000,-214,706,977,349,-0.03265380859375,0.10772705078125,0.149078369140625,0.053253173828125,-0.03265380859375,0.10772705078125,0.149078369140625,0.053253173828125,,,78002,15,1,15,0
625,78125,-165,740,965,302,-0.025177001953125,0.1129150390625,0.147247314453125,0.04608154296875,-0.025177001953125,0.1129150390625,0.147247314453125,0.04608154296875,,,78127,15,1,15,0
626,78250,-115,773,951,254,-0.017547607421875,0.117950439453125,0.145111083984375,0.03875732421875,-0.017547607421875,0.117950439453125,0.145111083984375,0.03875732421875,,,78252,15,1,15,0
627,78375,-65,804,934,206,-0.009918212890625,0.1226806640625,0.14251708984375,0.03143310546875,-0.009918212890625,0.1226806640625,0.14251708984375,0.03143310546875,,,78377,15,1,15,0
628,78500,-15,832,915,156,-0.002288818359375,0.126953125,0.139617919921875,0.0238037109375,-0.002288818359375,0.126953125,0.139617919921875,0.0238037109375,,,78502,15,1,15,0
629,78625,34,859,894,107,0.00518798828125,0.131072998046875,0.13641357421875,0.016326904296875,0.00518798828125,0.131072998046875,0.13641357421875,0.016326904296875,,,78627,15,1,15,0
630,78750,83,883,871,57,0.012664794921875,0.134735107421875,0.132904052734375,0.008697509765625,0.012664794921875,0.134735107421875,0.132904052734375,0.008697509765625,,,78752,15,1,15,0
631,78875,133,906,845,7,0.020294189453125,0.13824462890625,0.128936767578125,0.001068115234375,0.020294189453125,0.13824462890625,0.128936767578125,0.001068115234375,,,78877,15,1,15,0
632,79000,183,926,817,-42,0.027923583984375,0.14129638671875,0.124664306640625,-0.00640869140625,0.027923583984375,0.14129638671875,0.124664306640625,-0.00640869140625,,,79002,15,1,15,0
633,79125,231,943,787,-92,0.035247802734375,0.143890380859375,0.120086669921875,-0.0140380859375,0.035247802734375,0.143890380859375,0.120086669921875,-0.0140380859375,,,79127,15,1,15,0
634,79250,280,959,756,-141,0.042724609375,0.146331787109375,0.1153564453125,-0.021514892578125,0.042724609375,0.146331787109375,0.1153564453125,-0.021514892578125,,,79252,15,1,15,0
635,79375,327,972,722,-191,0.049896240234375,0.1483154296875,0.11016845703125,-0.029144287109375,0.049896240234375,0.1483154296875,0.11016845703125,-0.029144287109375,,,79377,15,1,15,0
636,79500,374,982,687,-240,0.05706787109375,0.14984130859375,0.104827880859375,-0.03662109375,0.05706787109375,0.14984130859375,0.104827880859375,-0.03662109375,,,79502,15,1,15,0
637,79625,420,990,649,-288,0.0640869140625,0.15106201171875,0.099029541015625,-0.0439453125,0.0640869140625,0.15106201171875,0.099029541015625,-0.0439453125,,,79627,15,1,15,0
